-245,243,-1005,2773,-682,-1146,3248,-358,-110,-1983,-2038,-156,-1140,1994,-2615,88
-293,75,-1293,2907,-739,-1152,2892,-399,-152,-2034,-2151,-145,-1080,923,-2881,103
-311,-354,-1318,2977,-793,-1246,2767,-203,-115,-2006,-2306,-54,-1044,-1140,-2977,133
-380,118,-1768,3046,-797,-1255,2549,-282,-133,-1936,-2496,-69,-1169,-3307,-3086,124
-400,203,-1531,3120,-671,-1180,2134,-373,-90,-1827,-2864,-179,-1063,-4417,-2573,143
-343,224,-1191,3058,-609,-1193,2047,-198,-100,-1772,-2713,-162,-1010,-4240,-1155,158
-274,246,-714,3031,-782,-1093,2324,-26,-129,-1804,-2138,-64,-1033,-3365,-1453,214
-319,326,-565,2950,-716,-1067,2413,165,-76,-1766,-2321,-88,-978,-1819,-3582,275
-554,30,-1097,2394,-1203,-1531,1913,-269,-354,-2277,-2898,-603,-1406,-1384,-4057,-239
-416,-26,-778,2873,-769,-1221,2234,184,-241,-1927,-2419,-160,-1108,-790,-3216,3
-354,318,-769,2839,-778,-1176,2241,226,-222,-1893,-2198,-258,-1018,-620,-2990,1
-440,-11,-622,2820,-735,-1199,2349,152,-127,-1987,-2409,-213,-1012,-546,-3009,-37
-458,-580,-422,2882,-577,-1089,2437,135,-142,-1821,-2368,-124,-1095,-477,-2954,-3
-422,-90,-456,2897,-597,-1016,2426,169,-176,-1898,-2396,-192,-1022,-507,-3073,220
-446,11,-411,2822,-563,-1114,855,160,-174,-1981,-2594,-149,-948,-296,-2536,201
-469,-32,-335,2971,-524,-1123,-4121,79,-130,-2030,-2651,-139,-976,-17,-1512,171
-459,75,-586,3033,-465,-1146,-5726,-86,-172,-2079,-2492,-181,-1129,399,-1559,288
-393,54,-522,2945,-537,-1046,-1129,-216,-132,-2321,-2375,-75,-1027,780,-901,388
-522,-369,-814,2635,-1003,-1395,5292,-601,-312,-2624,-2758,-548,-1384,9,71,-147
-433,0,-539,2739,-580,-950,13522,-128,-188,-2023,-2151,-260,-1012,88,-1529,341
-407,-28,-690,2775,-667,-918,11345,-228,-155,-2019,-2136,-256,-1061,-348,-2121,258
-414,128,-697,2786,-641,-954,4536,-286,-108,-2002,-2117,-143,-1031,-914,716,-11
-402,56,-652,2803,-599,-1010,3931,-239,-87,-1989,-2051,-209,-1076,-1078,654,114
-395,-13,-533,2920,-592,-1050,3305,69,-134,-2149,-2040,-147,-1155,-1042,-1346,111
-383,86,-516,2777,-603,-1016,2413,103,-188,-2292,-2117,-71,-1067,-778,-2198,194
-379,5,-467,2820,-605,-1063,1538,16,-162,-2228,-2279,-126,-1005,-264,-2700,65
-414,54,-520,2969,-629,-1099,1478,-77,-82,-2115,-2402,-124,-980,-96,-2817,103
-485,86,-577,2830,-616,-986,1813,-118,-63,-2123,-2345,-154,-959,18,-3311,169
-711,-137,-903,2443,-995,-1408,1832,-490,-339,-2551,-2581,-595,-1438,-494,-3906,-424
-524,77,-626,2686,-699,-1161,1911,52,-159,-1949,-2202,-258,-1071,-192,-3443,-54
-395,86,-609,2745,-699,-1159,1757,-137,-65,-1881,-1921,-262,-1133,-961,-3407,37
-395,150,-529,2686,-678,-1180,2090,-186,-55,-1700,-1844,-181,-1080,-1529,-3369,20
-460,-94,-550,2752,-539,-1106,2268,-96,-148,-1744,-2524,-171,-1025,-1114,-2049,69
-421,-286,-541,2760,-550,-1099,2503,-15,-37,-2023,-2924,-118,-995,-722,844,114
-354,-235,-543,2684,-686,-1184,2345,20,-15,-1793,-2656,-156,-1071,-637,1199,97
-314,-54,-505,2852,-558,-1178,2058,-39,-94,-1755,-2594,-47,-995,-731,-471,52
-352,116,-577,2875,-635,-1146,1960,-24,-130,-1921,-2485,-52,-1050,-803,-1693,39
-339,128,-599,2826,-629,-1123,2038,-58,-86,-1919,-2321,-86,-1067,-797,-2628,229
-559,-284,-1029,2511,-959,-1470,1600,-548,-397,-2296,-2658,-482,-1448,-1293,-2943,-171
-415,194,-667,2673,-739,-1120,1825,-173,-193,-1987,-2434,-107,-1133,-727,-2560,73
-378,382,-661,2701,-695,-1197,1968,-139,-230,-1874,-2240,-145,-1042,-516,-2470,97
-378,209,-605,2852,-678,-1069,2138,-47,-236,-1851,-2424,-135,-1016,-501,-2015,90
-399,222,-558,2813,-624,-1027,2458,-103,-188,-1904,-2285,-211,-1155,-437,-1491,67
-375,339,-563,2833,-560,-1176,2539,-211,-180,-1827,-2247,-171,-1131,-360,-988,-171
-374,284,-607,2952,-573,-1106,2070,-186,-128,-1938,-2266,-254,-1108,-688,-1955,-247
-422,354,-643,3031,-560,-1014,2145,-160,-127,-1872,-2185,-209,-1054,-1197,-3865,-88
-414,297,-720,2884,-514,-1112,2319,37,-147,-1923,-2160,-260,-1106,-1061,-3497,-11
-372,341,-682,2960,-612,-1108,2432,346,-180,-1906,-2194,-143,-993,-652,-1740,13
-588,-113,-1076,2556,-1031,-1540,2021,-126,-361,-2347,-2596,-580,-1384,-946,-1227,-305
-411,60,-761,2722,-729,-1089,2368,79,-207,-2164,-2341,-333,-1050,-277,-1821,209
-429,33,-682,2767,-618,-1003,2403,37,-258,-2076,-2347,-203,-1029,290,-3020,412
-394,11,-641,2856,-663,-1084,2034,-32,-205,-1936,-2351,-194,-1037,258,-3322,520
-375,67,-595,2865,-782,-1089,1664,-60,-187,-1893,-2358,-288,-1046,-533,-3320,507
-374,24,-605,2796,-803,-1189,1438,-226,-144,-1921,-2438,-201,-1089,-1169,-2994,358
-400,18,-654,2818,-805,-1040,1472,-394,-203,-1855,-2243,-275,-1035,-933,-2562,286
-391,65,-624,2907,-810,-1108,2098,-354,-227,-1836,-2264,-175,-965,-560,-2617,192
-386,88,-414,2845,-835,-1118,3167,-288,-205,-1983,-2217,-160,-1010,-1287,-2264,143
-367,43,-484,2824,-769,-1157,3895,-190,-249,-1968,-2230,-201,-914,-1310,-2209,197
-498,-264,-939,2409,-1110,-1491,3518,-428,-454,-2309,-2696,-520,-1406,-2045,-2632,-324
-416,-113,-820,2756,-765,-1159,4134,-137,-217,-2002,-2347,-254,-1061,-1955,-2013,143
-354,-20,-942,2873,-839,-1082,3550,-90,-178,-2081,-2306,-237,-1076,-2104,-1582,79
-344,107,-682,2992,-748,-961,3133,-149,-205,-2106,-2215,-224,-1089,-1962,-786,-32
-304,282,-648,2950,-697,-1020,2939,-11,-115,-2115,-2311,-135,-1059,-886,292,26
-317,363,-682,2931,-739,-1057,2684,-5,-110,-2000,-2387,-128,-1054,-714,-132,77
-318,412,-607,2980,-554,-1110,2592,-130,-179,-2019,-2232,-201,-1054,-473,-980,109
-285,441,-437,2948,-546,-1103,2385,-39,-102,-2002,-2213,-120,-1018,-250,-2040,167
-314,218,-341,3007,-622,-1005,2253,1,-88,-1942,-2306,-130,-1008,-113,-3484,263
-308,326,-360,2973,-667,-1008,2194,18,-132,-1889,-2283,-30,-952,-262,-3978,203
-571,7,-856,2628,-1074,-1521,1642,-403,-385,-2321,-2811,-486,-1382,-950,-4689,-196
-427,237,-1110,2922,-865,-1123,1082,-98,-200,-1970,-2466,-194,-1071,-769,-3874,118
-364,-54,-1329,2865,-844,-1050,576,-167,-211,-1959,-2398,-211,-1078,-882,-2413,209
-343,-35,-1022,2933,-790,-1131,1217,-162,-208,-1832,-2443,-128,-1067,-769,-1095,126
-358,295,-795,2835,-827,-1184,2681,-164,-126,-1932,-2338,-111,-1052,-560,109,3
-379,211,-431,2922,-671,-1146,4334,-124,-102,-1972,-2334,-124,-1063,-518,1261,-39
-342,-30,-571,2856,-671,-1065,4236,-37,-162,-1987,-2275,-154,-1086,-462,769,-162
-367,-60,-675,2980,-631,-1103,2688,-71,-127,-1938,-2296,-28,-1003,-373,-1336,26
-388,-7,-656,2937,-663,-1184,2562,-35,-81,-2004,-2326,-77,-1054,-409,-3214,97
-425,-43,-616,2833,-546,-1186,1953,-77,-101,-1851,-2289,-39,-1014,-529,-2764,145
-665,-497,-1082,2500,-978,-1555,490,-437,-351,-2268,-2743,-511,-1617,-988,-2328,-311
-499,-43,-720,2935,-712,-1157,1234,-120,-113,-1974,-2413,-103,-1067,-573,-1570,41
-454,158,-633,2758,-609,-1120,2192,-126,-109,-1970,-2279,-258,-1061,-539,-1776,214
-398,39,-718,2713,-658,-1120,4163,-122,-104,-2021,-2317,-101,-1086,-597,-2010,331
-386,-126,-588,2764,-637,-1097,6467,5,-147,-2000,-2243,-73,-980,-552,-2179,267
-392,-64,-661,2716,-597,-1074,4766,69,-69,-2025,-2206,-81,-925,-486,-2451,292
-382,3,-573,2850,-614,-1040,2726,-75,-60,-2010,-2338,-111,-978,-539,-2649,182
-359,-45,-422,2901,-688,-1020,2879,22,-6,-1968,-2298,-164,-967,-673,-2967,128
-432,-62,-518,2986,-575,-1003,2515,58,-64,-1949,-2309,-88,-1129,-573,-3018,203
-399,11,-580,2926,-665,-982,2324,-69,-98,-1991,-2341,-156,-1033,-646,-2741,145
-583,-299,-925,2458,-1037,-1427,1849,-416,-270,-2413,-2762,-573,-1440,-1093,-2504,-339
-490,182,-622,2711,-761,-1165,2192,-64,-129,-2049,-2334,-269,-1091,-656,-213,56
-475,-7,-618,2779,-678,-1046,2258,-88,-100,-2030,-2345,-258,-1231,-680,-124,60
-416,-184,-663,2767,-571,-1086,2175,30,-136,-1987,-2245,-164,-1089,-675,-3220,48
-495,82,-622,2877,-652,-1101,2307,45,-169,-2015,-2421,-135,-1071,-686,-4408,92
-494,220,-560,3001,-669,-1048,2398,-88,-99,-1996,-2366,-160,-1129,-682,-3492,41
-440,177,-650,2931,-678,-1031,2177,-22,-137,-1993,-2232,-158,-974,-752,-2507,120
-359,175,-571,2894,-663,-1114,1702,7,-143,-2010,-2385,-122,-1082,-744,-1776,94
-378,194,-488,2924,-622,-1020,1596,-94,-122,-1874,-2345,-109,-1018,-805,-2185,71
-377,265,-514,2873,-580,-1101,1943,35,-120,-1868,-2226,-105,-1040,-699,-2004,120
-601,-320,-961,2458,-1018,-1553,1410,-373,-397,-2492,-2632,-511,-1419,-1048,-2560,-467
-458,-9,-650,2871,-716,-1146,2354,50,-189,-2104,-2260,-196,-1120,-829,-3735,-77
-462,171,-612,2711,-690,-1084,2745,207,-188,-2121,-2283,-203,-1148,-861,-3629,-45
-405,305,-590,2688,-624,-1071,2830,201,-218,-1902,-2294,-258,-927,-765,-2677,62
-306,269,-460,2724,-603,-1123,2833,148,-226,-2019,-2277,-313,-1103,-690,-1749,192
-344,518,-467,2813,-546,-1161,2588,182,-211,-2066,-2228,-277,-1080,-750,20,246
-436,454,-582,2833,-618,-1106,972,-143,-230,-1917,-2119,-211,-986,-746,2026,239
-399,165,-558,2888,-656,-1148,-1487,-433,-267,-1840,-2209,-252,-1035,-709,691,288
-427,-139,-637,2875,-626,-1093,-1600,-586,-250,-1874,-2432,-260,-1012,-678,-1540,343
-415,165,-658,2813,-643,-1091,-52,-554,-270,-1942,-2434,-143,-1133,-701,-1732,348
-557,-130,-1137,2562,-967,-1531,2652,-903,-468,-2217,-3020,-597,-1510,-1148,-2594,-171
-438,456,-850,2916,-643,-1089,7905,-409,-225,-1949,-2766,-271,-1135,-750,-2673,90
-465,708,-1046,2935,-567,-1084,8005,-386,-180,-2130,-2347,-230,-1093,-816,-2828,177
-430,301,-961,2818,-514,-1191,4938,-222,-152,-2059,-2306,-220,-1020,-733,-2896,199
-400,316,-714,2745,-484,-1078,4728,45,-134,-2134,-2300,-277,-1110,-835,-2728,148
-375,218,-682,2796,-405,-1091,3531,92,-198,-2155,-2345,-256,-1082,-767,-2375,75
-391,65,-652,2862,-507,-1025,2654,35,-191,-2059,-2287,-254,-1067,-729,-1866,163
-429,254,-682,3001,-524,-1044,2281,-28,-147,-2028,-2251,-71,-974,-697,-1927,62
-449,209,-560,2869,-588,-1148,1187,82,-86,-2000,-2355,-54,-925,-616,-2162,13
-427,148,-505,2960,-452,-1054,-788,126,-128,-1985,-2264,28,-914,-639,-1791,9
-576,-284,-852,2624,-1001,-1491,-235,-235,-356,-2466,-2675,-558,-1374,-1210,-2419,-580
-457,-39,-592,2858,-716,-1233,2187,67,-134,-2142,-2362,-288,-959,-844,-3073,-350
-436,5,-690,2841,-765,-1157,5907,-7,-151,-2059,-2441,-245,-1091,-793,-2456,-152
-422,-28,-541,2916,-744,-1131,6987,-66,-176,-1991,-2407,-233,-1044,-727,-2189,62
-406,60,-582,2903,-782,-1172,3077,-175,-208,-1959,-2338,-267,-1067,-654,-2321,314
-391,-7,-590,2939,-739,-1152,2249,-69,-227,-1964,-2264,-188,-997,-658,-2556,522
-402,92,-597,2920,-780,-1091,2364,7,-250,-1938,-2289,-264,-1054,-714,-3071,654
-378,216,-548,2990,-686,-1016,1325,16,-213,-1970,-2223,-228,-1084,-641,-3069,635
-317,256,-535,2916,-618,-1014,427,160,-171,-2010,-2168,-73,-1131,-684,-2257,361
-314,401,-541,2933,-722,-1012,1106,101,-188,-1904,-2213,-111,-931,-684,720,197
-524,133,-1003,2532,-1172,-1463,1862,-631,-395,-2368,-2688,-558,-1408,-1086,1632,-330
-411,222,-729,2839,-697,-1099,3546,-622,-166,-2053,-2287,-98,-1074,-722,-1097,-139
-373,-164,-707,2937,-675,-1046,3333,-452,-109,-1944,-2319,-75,-1106,-776,-3788,-226
-385,-179,-539,2939,-716,-1067,1583,-79,-166,-2021,-2209,-141,-982,-669,-4787,-111
-410,24,-269,2914,-716,-942,1131,62,-155,-1947,-2287,-126,-1057,-211,-5072,18
-419,-107,-454,2856,-690,-948,899,111,-144,-1930,-2330,-126,-974,974,-4598,-35
-406,109,-418,2860,-539,-1001,1427,-3,-72,-2021,-2281,-143,-1027,1551,-3993,-17
-394,305,-488,2911,-565,-918,2679,101,-105,-1974,-2249,-113,-1069,831,-1221,97
-367,299,-571,2875,-716,-1046,3842,122,-122,-1900,-2223,-158,-995,-646,2247,92
-329,484,-844,2803,-692,-1091,3933,-145,-32,-1864,-2230,-162,-978,-2430,1957,343
-530,116,-1242,2277,-1040,-1459,2581,-744,-264,-2332,-2628,-637,-1448,-3893,1157,-115
-445,265,-741,2647,-788,-1152,2758,-316,-70,-1693,-2332,-256,-1074,-3041,286,165
-462,-96,-722,2739,-641,-1142,2258,-224,-72,-1623,-2292,-141,-1165,-2115,-2230,207
-515,-284,-692,2813,-609,-1208,1779,271,-45,-1719,-2375,-237,-1189,-1378,-3974,211
-507,-88,-737,2758,-639,-1080,1561,405,-74,-1913,-2522,-228,-1140,-918,-4274,109
-368,229,-629,2843,-756,-1165,880,26,-60,-1906,-2351,-264,-1148,-471,-4116,-5
-210,484,-882,2788,-709,-1150,620,-260,-60,-1896,-2298,-254,-1027,-207,-4101,-128
-195,135,-761,2752,-620,-1108,1860,-439,-98,-1983,-2385,-171,-1029,-196,-3003,-226
-208,-120,-599,2788,-776,-1189,3263,-343,-145,-2119,-2517,-96,-1069,-333,-1078,-203
-232,62,-633,2907,-824,-1091,4664,-333,-111,-2074,-2419,-107,-1035,-401,-1661,-41
-550,-599,-967,2475,-1176,-1570,4841,-824,-332,-2511,-2636,-526,-1487,-984,-3431,-213
-414,-482,-514,2792,-918,-1248,3124,-654,-167,-2160,-2002,-275,-1155,-1033,-2213,271
-392,5,-32,2788,-788,-959,2377,-386,-203,-2140,-1800,-235,-1172,-1250,205,482
-443,254,101,2805,-620,-1042,2375,-143,-69,-2168,-1883,-184,-1027,-790,829,507
-441,427,-218,2939,-616,-1076,2124,-77,-48,-1874,-1802,-207,-1086,-614,-927,507
-349,814,-688,2860,-810,-1076,2236,43,-77,-1715,-1930,-218,-1046,-669,-2255,401
-357,71,-1208,2858,-733,-969,2524,77,-28,-1853,-2168,-90,-963,-499,-3156,282
-356,-658,-1614,2892,-609,-1040,2473,33,-81,-1972,-2577,-128,-1018,-499,-3429,211
-313,-335,-1146,2869,-522,-1048,2249,24,-81,-1840,-2594,-177,-1035,-439,-3314,235
-281,11,-735,2830,-548,-1069,2228,50,-114,-1838,-2600,-160,-1054,-501,-1734,190
-544,-341,-1257,2443,-971,-1431,1708,-365,-395,-2349,-3265,-548,-1461,-944,-201,-250
-398,-128,-905,2860,-605,-1135,1768,-58,-245,-1974,-2754,-192,-1061,-580,-1602,-17
-347,156,-814,2933,-490,-1008,1732,18,-237,-2028,-2771,-135,-1012,-541,-3022,26
-350,152,-618,2865,-654,-1031,1057,9,-222,-2064,-2869,-216,-971,-531,-1649,188
-366,60,-499,2888,-701,-1108,989,0,-253,-1919,-2607,-160,-1005,-524,-1344,52
-405,-3,-448,2907,-580,-1044,2111,82,-248,-1987,-2383,-64,-1042,-614,-2351,-7
-386,-52,-475,2873,-533,-1044,3084,52,-217,-2013,-2332,-188,-1101,-592,-1930,-22
-372,5,-477,2796,-533,-1135,4325,128,-158,-1925,-2319,-198,-1125,-556,-2532,39
-458,22,-414,2820,-612,-1118,5068,88,-113,-2179,-2272,-273,-1080,-558,-3465,88
-414,41,-371,2758,-605,-1029,3525,79,-151,-2025,-2206,-184,-1050,-548,-3567,-39
-646,-301,-839,2302,-939,-1491,2492,-390,-373,-2428,-2690,-616,-1542,-1069,-3705,-701
-553,-62,-558,2503,-639,-1235,2415,-137,-158,-2074,-2287,-220,-1059,-690,-2700,-365
-479,-69,-586,2632,-701,-1238,1877,-173,-209,-2079,-2234,-211,-1137,-633,-2685,-96
-479,24,-526,2931,-737,-1131,2055,-86,-146,-2045,-2234,-252,-1089,-661,-2187,156
-475,50,-614,3071,-692,-1163,2204,-77,-177,-2074,-2179,-158,-1048,-633,-309,375
-393,41,-614,3218,-778,-1195,2292,-86,-179,-2004,-2189,-192,-1069,-729,229,441
-370,94,-560,3535,-699,-1135,2760,18,-170,-1885,-2209,-77,-956,-675,-309,441
-394,318,-507,3416,-648,-1074,3220,1,-222,-1893,-2234,-137,-999,-661,-9,437
-401,384,-586,3220,-680,-1108,2901,69,-188,-1923,-2279,-139,-1020,-624,-2696,297
-374,405,-531,3143,-646,-1065,2477,28,-185,-1908,-2100,-105,-967,-688,-1589,145
-692,50,-1005,2684,-997,-1608,1762,-580,-377,-2323,-2532,-614,-1504,-993,94,-339
-512,439,-597,2886,-799,-1257,2019,-158,-233,-2006,-2334,-196,-1118,-639,-1657,-164
-445,586,-790,2839,-665,-1180,2273,-237,-165,-2017,-2277,-222,-1095,-799,-2700,-71
-439,486,-665,2828,-622,-1184,2820,-177,-185,-1974,-2304,-271,-1048,-886,-3062,79
-411,407,-614,2899,-758,-1082,3154,-141,-189,-1981,-2226,-196,-1044,-631,-3067,0
-392,416,-641,2784,-673,-1084,3043,-101,-112,-2017,-2217,-124,-1057,-620,-3020,122
-405,348,-601,2779,-756,-1146,2745,-120,-128,-1925,-2372,-160,-1035,-729,-3160,139
-362,329,-663,2764,-722,-1099,2571,-60,-59,-1795,-2243,-98,-952,-605,-2992,56
-383,284,-699,2679,-667,-1012,2426,-41,-87,-1872,-2213,-101,-1016,-690,-2798,133
-367,128,-588,2698,-650,-1061,2151,-22,-128,-1993,-2228,-75,-1044,-597,-2717,171
-588,-160,-1046,2362,-1103,-1491,1225,-435,-266,-2532,-2668,-516,-1519,-1146,-3011,-299
-520,145,-703,2643,-805,-1125,1708,-49,-138,-2115,-2338,-220,-1089,-807,-2611,69
-412,92,-746,2720,-656,-1231,2068,-5,-171,-1949,-2317,-115,-999,-709,-2351,111
-347,109,-671,2769,-654,-1229,1472,-207,-129,-1913,-2306,-158,-1027,-746,-1561,88
-344,39,-537,2652,-635,-1161,-780,-188,-100,-1959,-2404,-186,-1086,-729,-1016,218
-274,-39,-533,2671,-609,-1099,-2306,-81,-102,-1908,-2226,-9,-1067,-767,-1423,192
-262,-109,-577,2760,-654,-1125,-3403,-132,-102,-1898,-2264,-45,-1016,-827,-1870,299
-334,-111,-622,2769,-697,-1071,290,-94,-160,-1868,-2306,-81,-1027,-712,-2125,220
-325,-35,-595,2777,-675,-988,7651,45,-184,-1934,-2253,-35,-1025,-731,-2211,152
-317,-149,-680,2903,-658,-1031,12267,241,-164,-1940,-2228,-32,-899,-701,-2134,167
-550,-473,-1035,2388,-1031,-1499,9504,-175,-358,-2451,-2700,-488,-1476,-1216,-2720,-279
-473,-64,-727,2722,-673,-1129,5247,60,-189,-2062,-2304,-132,-988,-805,-2487,199
-448,109,-673,2875,-795,-1016,4048,54,-171,-2094,-2421,-222,-1118,-910,-2362,62
-426,222,-516,2888,-771,-1052,3597,-60,-216,-2117,-2347,-273,-1076,-733,-2213,45
-435,433,-313,2884,-684,-1067,2464,-128,-192,-2123,-2413,-143,-931,-765,-2247,0
-517,484,-288,2856,-646,-1069,2275,-250,-177,-2053,-2415,-203,-974,-842,-2426,7
-497,341,-256,2824,-690,-1099,2168,-143,-220,-2019,-2277,-179,-1010,-758,-2832,-17
-370,77,-279,2914,-714,-1167,1923,-83,-199,-2019,-2345,-179,-1061,-712,-2715,-22
-303,-433,-782,2986,-656,-1144,1796,-316,-169,-2068,-2392,-113,-1082,-712,-2771,-49
-259,-520,-863,2911,-556,-1093,1932,-311,-150,-1889,-2421,-175,-1014,-573,-3077,-11
-443,-1127,-1289,2503,-1031,-1399,1519,-588,-367,-2336,-2809,-646,-1523,-1018,-3478,-245
-341,-575,-1361,2830,-577,-1142,2066,-228,-187,-1898,-2413,-139,-1150,-514,-2824,397
-323,-269,-1093,2784,-703,-1193,1926,-299,-146,-1908,-2385,-173,-1120,-524,-2896,629
-397,-301,-788,2782,-622,-1099,1502,-541,-152,-2200,-2240,-252,-1069,-620,-1010,586
-467,-156,-750,2860,-529,-1022,1195,-471,-150,-2117,-2279,-282,-1161,-414,2843,331
-461,126,-560,2779,-497,-1057,1862,-137,-147,-2017,-2296,-126,-1131,633,1823,269
-480,855,-507,2818,-531,-1103,2109,137,-191,-1881,-2351,-28,-1086,1596,-673,233
-401,1187,-337,2771,-614,-1112,2285,309,-86,-1672,-2272,-113,-1048,1263,-1546,216
-345,812,-384,2750,-701,-1065,2415,510,-133,-1763,-2079,-81,-1008,58,-2590,145
-326,503,-554,2860,-661,-1048,1634,586,-27,-1868,-2234,-107,-1001,-1776,-2466,22
-568,-303,-1210,2428,-963,-1468,463,-256,-285,-2032,-2696,-505,-1531,-3889,-2945,-416
-477,-773,-1110,2733,-609,-1069,348,-58,-110,-1759,-2117,-226,-1157,-3908,-2443,-71
-325,-369,-1276,2848,-567,-978,837,-213,-85,-1936,-2108,-111,-1127,-2500,-2702,-86
-345,-388,-971,2728,-554,-1082,1889,-216,-123,-1861,-2304,-147,-1078,-1361,-2698,3
-374,-354,-876,2813,-567,-1086,3161,-94,-144,-1883,-2396,-167,-999,-722,-2675,3
-377,-228,-910,2788,-620,-1001,4010,-126,-120,-2223,-2402,-194,-1086,-548,-2336,103
-356,-399,-603,2865,-673,-1050,3337,-111,-136,-2177,-2894,-216,-1035,-482,-910,37
-391,-77,-480,2879,-714,-1016,2017,-124,-130,-2226,-2602,-107,-914,-916,-661,79
-406,18,-514,2918,-699,-1118,1860,-154,-128,-2272,-2336,-90,-925,-1942,-1925,75
-396,-66,-411,2894,-654,-1116,1429,-137,-114,-1974,-2389,-90,-997,-1678,-1876,152
-634,-403,-801,2454,-1131,-1548,556,-537,-280,-2504,-2728,-671,-1504,-1131,-995,-394
-523,103,-637,2809,-801,-1201,2181,-254,-123,-2160,-2264,-384,-1103,-56,-1084,-39
-521,177,-486,2867,-741,-1155,3244,-179,-160,-2008,-2355,-256,-1118,382,-3546,160
-492,192,-509,2920,-733,-1180,3976,-35,-152,-1870,-2375,-273,-948,307,-3556,5
-446,277,-405,2888,-563,-1159,4649,-56,-151,-1836,-2311,-313,-1025,-64,-2775,-235
-492,358,-431,2824,-590,-1112,1476,56,-138,-1849,-2366,-254,-1086,-441,-3516,-448
-431,414,-501,2786,-643,-1005,258,-22,-131,-1938,-2366,-258,-939,-846,-4268,-365
-402,450,-454,2737,-712,-1012,1977,-11,-132,-2057,-2338,-120,-1040,-1542,-2481,128
-374,569,-426,2756,-705,-1063,3314,-22,-145,-1936,-2264,-160,-1123,-1548,-2268,395
-341,405,-399,2724,-622,-1052,5754,-37,-169,-1998,-2189,-186,-1005,-873,-3456,476
-467,58,-848,2202,-1005,-1482,6225,-369,-348,-2349,-2698,-618,-1421,-1103,-4176,235
-413,467,-680,2368,-667,-1137,4353,-49,-138,-1974,-2328,-115,-1065,-535,-2771,667
-385,469,-582,2390,-612,-1069,3561,-154,-186,-1944,-2341,-137,-1131,-524,1084,473
-374,512,-503,2530,-514,-1093,2788,-137,-186,-1825,-2266,-192,-1069,-494,3273,209
-430,554,-531,3016,-618,-1133,2292,-45,-204,-1949,-2209,-203,-984,-401,3729,26
-466,622,-503,3267,-682,-1178,2224,-96,-220,-1857,-2213,-254,-1046,-473,2409,26
-462,533,-394,3601,-969,-1103,2364,-243,-264,-1910,-2266,-164,-1061,-443,-2053,148
-381,429,-511,3838,-1086,-1103,2358,-192,-145,-1876,-2268,-30,-976,-299,-1127,160
-368,373,-535,3682,-946,-1176,2066,-162,-187,-1919,-2330,-141,-1037,-311,-418,260
-372,275,-501,2713,-799,-1178,2094,20,-188,-1881,-2319,-137,-978,-431,-2321,218
-542,-118,-1063,1308,-1099,-1493,1561,-501,-433,-2315,-2803,-577,-1527,-839,-2973,-260
-432,82,-754,1280,-814,-1108,1374,-188,-231,-1985,-2366,-235,-1167,-520,-3224,94
-419,3,-646,1302,-859,-1163,742,-120,-219,-1938,-2326,-237,-1074,-503,-3663,13
-380,-58,-637,1412,-818,-1312,727,-143,-219,-1964,-2381,-218,-1069,-673,-3718,16
-390,41,-652,1742,-422,-1216,1387,-47,-218,-1985,-2309,-269,-1061,-609,-3812,65
-345,-77,-739,2624,-339,-1076,2034,-79,-164,-1927,-2238,-107,-982,-431,-3786,122
-383,-96,-701,3210,-341,-1050,3135,-90,-106,-2023,-2277,-186,-1116,-641,-3676,97
-381,-164,-565,3403,-290,-997,4472,-45,-135,-1896,-2253,-149,-956,-673,-3612,3
-356,24,-629,4351,-158,-1059,3537,-20,-197,-1853,-2268,-181,-948,-595,-3363,-22
-366,126,-690,5030,-222,-1042,2647,-184,-170,-1829,-2334,-205,-910,-605,-2074,71
-525,-301,-1054,5009,-899,-1489,1902,-490,-349,-2389,-2707,-648,-1408,-1044,-1050,-418
-399,167,-729,5507,-837,-1108,1919,-184,-185,-2051,-2385,-258,-1082,-705,-1433,75
-372,194,-797,5102,-758,-1120,2013,-132,-164,-2094,-2368,-181,-1054,-703,-2238,269
-359,75,-731,4174,-939,-1108,2658,-15,-122,-2098,-2268,-181,-1035,-703,-3165,301
-324,18,-737,3143,-1078,-1172,3408,-39,-111,-2123,-2400,-230,-1040,-790,-4033,371
-370,122,-752,2253,-1089,-1125,3642,7,-102,-2068,-2206,-56,-1016,-703,-3959,403
-368,111,-671,2158,-1142,-1120,2782,-30,-115,-2066,-2349,3,-1063,-684,-2462,284
-403,24,-716,2345,-737,-1005,2222,-101,-72,-2023,-2260,-149,-961,-675,-1587,284
-375,-47,-675,2496,-658,-890,2138,-90,-132,-2038,-2332,-167,-1042,-786,-386,224
-354,11,-586,2771,-571,-842,2207,-43,-72,-2006,-2332,-169,-1044,-805,3188,135
-567,-494,-1037,2632,-976,-1257,1815,-524,-327,-2323,-2711,-607,-1502,-1167,1830,-333
-418,-115,-724,3393,-686,-971,2388,-128,-120,-1979,-2292,-358,-1148,-761,-2240,82
-366,20,-709,3593,-675,-1059,2283,-194,-160,-1955,-2306,-228,-1146,-786,-3369,1
-321,-17,-648,3363,-773,-1106,2315,-143,-191,-1885,-2279,-162,-1103,-735,-3565,90
-278,-37,-697,3239,-805,-1206,2426,-90,-192,-1927,-2328,-113,-1084,-707,-2049,94
-292,-154,-684,3403,-680,-1155,2324,-56,-258,-1851,-2347,-120,-1018,-678,-1333,-5
-312,109,-641,3024,-597,-916,2185,-88,-178,-1795,-2345,-105,-937,-729,-3554,-7
-335,116,-567,2358,-503,-897,203,-111,-165,-1859,-2283,-113,-982,-714,-4866,60
-425,94,-524,2090,-505,-920,-1829,-20,-169,-1853,-2285,-71,-978,-724,-5092,175
-467,207,-601,2138,-601,-969,-729,-7,-94,-1915,-2251,-77,-976,-678,-5021,171
-623,-190,-1008,1685,-946,-1453,1387,-511,-269,-2372,-2760,-514,-1438,-1159,-5062,-445
-511,35,-686,2162,-688,-1120,5841,-77,-126,-1955,-2389,-186,-1065,-729,-3967,-39
-459,133,-646,2347,-686,-1148,9110,3,-166,-1881,-2355,-152,-1040,-782,-3642,35
-441,114,-671,2334,-850,-1238,6048,-62,-159,-1919,-2368,-241,-1110,-771,-3509,67
-482,171,-601,2264,-1012,-1257,3231,-77,-113,-2036,-2302,-237,-1069,-859,-1282,177
-491,54,-616,1940,-1133,-1304,3024,-32,-113,-2087,-2262,-196,-1112,-816,1268,160
-417,62,-622,1860,-954,-1323,2432,-71,-106,-2025,-2338,-299,-1129,-773,254,103
-439,-3,-648,1915,-807,-1295,2383,-5,-88,-1932,-2215,-256,-1031,-748,967,173
-473,50,-646,2021,-431,-1167,2511,43,-150,-1964,-2277,-218,-1063,-665,1600,182
-403,33,-597,2030,-3,-1155,2477,41,-96,-1942,-2304,-62,-1080,-582,-967,111
-640,-318,-980,1640,-599,-1572,1934,-477,-365,-2464,-2647,-573,-1531,-1157,-2245,-343
-447,-45,-707,1860,-450,-1259,2141,-64,-133,-2028,-2353,-184,-1027,-731,-2483,-15
-415,58,-626,1949,-737,-1203,1779,-7,-213,-2030,-2330,-137,-1052,-763,-1619,69
-318,111,-618,1943,-712,-1150,1344,-39,-260,-2051,-2358,-213,-1061,-737,-1255,56
325,109,-605,2626,-507,-1108,1310,-49,-208,-2000,-2270,-162,-1050,-658,-2168,118
450,156,-563,3158,-324,-1095,1953,-62,-31,-2038,-2223,-88,-1018,-767,-2760,107
-1200,231,-448,2984,-612,-1133,2939,-22,-31,-2076,-2366,-149,-937,-737,-3288,99
-1955,214,-311,2445,-1031,-1169,3750,16,-1272,-2142,-2200,-103,-954,-769,-3320,192
-1451,318,-260,2667,-918,-1150,3414,-66,-1546,-2211,-2079,-196,-952,-656,-3186,248
-2012,395,-169,2877,-113,-1250,2671,-62,-846,-2125,-2081,-224,-1052,-665,-2566,214
-957,-52,-390,2170,282,-1636,2185,-322,-501,-2485,-2396,-458,-1363,-1161,-2413,-467
-1735,318,-177,2143,633,-1244,2224,-88,-270,-2081,-1964,-254,-993,-814,-2008,-362
-5490,441,-111,2275,412,-1159,1947,-205,-7,-1904,-1979,-352,-1172,-722,-1927,-17
-4327,680,-58,2437,24,-935,1644,-32,2943,-1666,-1981,-145,-1065,-701,-699,92
1133,867,-181,2684,-575,-937,309,-15,3260,-1614,-1981,-164,-1140,-882,-882,275
4543,1033,-260,3165,-1044,-1063,-1512,-35,861,-1344,-1944,-284,-1078,-803,-1167,461
6186,891,-284,3186,-1516,-952,-1071,-160,627,-1359,-2087,-141,-1110,-814,-335,418
5390,746,-456,2716,-1736,-1052,97,-118,-859,-1572,-2317,-71,-1074,-788,-546,348
3601,595,-592,2835,-1770,-1195,2379,-107,-1309,-1904,-2696,-137,-1091,-703,-1103,282
2809,303,-899,3312,-2183,-1316,5854,-145,-736,-2257,-3128,-22,-1048,-637,-1636,216
1660,-392,-1527,2922,-2628,-1744,6103,-584,-815,-2860,-3754,-520,-1419,-1059,-2245,-328
385,-431,-1519,3474,-1606,-1203,5718,-213,-1438,-2424,-3186,-226,-1071,-735,-2010,-15
-1513,-667,-1970,4287,-852,-965,5339,-175,-2526,-2349,-3013,-175,-1016,-752,-2924,73
-4450,-803,-2142,4483,-54,-922,4651,-83,-2992,-2430,-2922,-149,-1025,-716,-3750,69
-4499,-799,-2076,5004,282,-805,3676,-245,-2271,-2338,-2685,-156,-991,-654,-3013,5
-2268,-686,-1861,5829,-373,-818,3367,-169,-1404,-2253,-2556,-179,-1014,-639,-1759,33
-1751,-595,-1387,6316,-865,-805,2822,-115,-472,-2168,-2466,-196,-942,-614,-1834,94
-2073,-371,-1037,6235,-1229,-971,2569,-149,311,-1985,-2213,-39,-914,-650,-2677,-24
-2929,-252,-746,5537,-1267,-1054,2434,-56,3028,-1851,-2189,-126,-908,-709,-2590,-107
-3300,-377,-567,4455,-956,-986,2166,-122,4324,-1729,-2068,-211,-901,-712,-2547,-11
-2341,-705,-918,2769,-1089,-1442,1585,-543,785,-2226,-2526,-678,-1346,-1052,-4146,-428
-117,-233,-695,1578,-699,-1178,1768,-130,1358,-1904,-2206,-392,-1054,-735,-4934,62
579,-175,-631,1114,-258,-1142,1649,-52,-1482,-1876,-2317,-445,-1005,-750,-4693,43
-389,-15,-529,767,-175,-1118,1619,-107,-3469,-1938,-2404,-392,-1054,-735,-4289,-26
-697,43,-439,20,-79,-1148,1730,-15,-2498,-2008,-2226,-518,-1176,-810,-4101,35
-1576,-41,-369,-497,-309,-1161,1985,33,-2119,-2160,-2085,-445,-1476,-788,-2411,109
-568,82,-296,-1325,-737,-1214,1902,71,2372,-2098,-2081,-348,-1495,-741,-824,250
702,203,-245,-1350,-1195,-1267,2077,86,2699,-1927,-2138,-164,-1267,-812,1446,401
-1011,260,-181,1346,-1284,-1329,2503,77,-116,-1868,-2079,-88,-1159,-769,6486,388
-1617,539,-56,5124,-1076,-1178,2711,71,626,-1891,-2076,-26,-1112,-582,4828,531
-3768,271,-362,7366,-1163,-1461,2268,-337,662,-2247,-2545,-422,-1399,-1008,-2918,99
-4477,539,111,7566,-260,-1001,2716,-105,-93,-1861,-2172,188,-999,-678,-2530,312
6511,718,271,6514,116,-908,2903,-179,1642,-1732,-2157,456,-882,-560,-490,229
6416,861,229,5271,86,-856,2662,-139,-743,-1657,-2368,516,-822,-529,-895,182
2304,763,26,3804,-211,-948,2305,-69,-1431,-1742,-2570,271,-905,-569,-699,-24
2943,686,-252,2187,-371,-1235,1779,65,-1649,-1870,-2864,39,-1046,-646,-4240,77
256,550,-692,1828,-539,-1261,1798,-56,-1653,-1936,-2619,52,-965,-575,-7564,165
-3393,297,-1180,1874,-1110,-1255,2006,-86,288,-1983,-2351,-130,-1044,-641,-6295,263
-2484,-147,-1738,1715,-1425,-1367,2381,-83,696,-1970,-2353,-258,-1074,-607,-81,386
-1196,-288,-1898,1415,-1022,-1423,2745,-113,-100,-1993,-2468,-245,-1008,-577,2190,427
-1538,-754,-2313,-122,-944,-1781,2394,-497,-450,-2441,-2886,-731,-1438,-1129,-1440,-262
-1878,-377,-1729,-595,-428,-1238,2552,-228,-423,-2145,-2409,-273,-1048,-778,-2145,-11
-3471,-201,-1240,-418,-77,-1157,2535,-190,368,-2134,-2317,-279,-1067,-788,-3492,-17
-4056,-156,-937,-752,309,-980,2541,-135,338,-2100,-2409,-190,-1127,-744,-3763,11
2974,-75,-967,-379,642,-878,2537,-49,296,-1998,-2260,-154,-1063,-703,-3265,-71
6869,58,-722,378,1291,-852,2430,-90,253,-1906,-2219,-284,-1029,-737,-2223,-267
2521,-54,-573,765,2004,-895,2473,-128,108,-1864,-2217,-382,-1069,-744,-1178,-575
989,143,-460,2045,2375,-976,2492,-107,182,-1889,-2228,-288,-1012,-637,-362,-626
914,192,-403,1736,1894,-1131,2396,-126,282,-1989,-2230,-196,-1033,-741,-418,-507
-722,160,-252,-194,867,-1129,2266,-24,364,-1979,-2281,-228,-1001,-637,-922,-343
-1100,-416,-497,-1949,-763,-1693,2145,-518,-161,-2332,-2583,-818,-1582,-1046,-1423,-416
1293,-175,-313,-1027,-1772,-1610,2926,-66,-491,-2004,-2253,-497,-1172,-733,-2937,480
575,-96,-322,3201,-3060,-1534,2769,-88,-532,-2010,-2172,-345,-1084,-714,-5637,906
-902,-71,-239,8382,-3271,-1472,2635,-145,-313,-2062,-2245,-286,-1091,-714,-6318,1116
-3754,171,60,10421,-4589,-1495,2579,-43,-232,-2121,-2260,-188,-1014,-752,-5134,1168
-6661,358,143,9998,-5551,-1146,2451,-3,-230,-2145,-2215,-277,-1003,-746,-3552,1040
-7759,501,-3,10379,-4110,-827,2236,13,-269,-2055,-2196,-301,-1057,-752,-2596,405
-5060,686,158,10464,-2626,-388,1532,11,-80,-1919,-2102,-284,-971,-609,-480,-71
7503,855,371,8635,-871,-145,361,-39,-231,-1898,-2147,-309,-993,-761,556,-196
7739,933,169,6482,235,-409,-77,-69,-41,-1819,-2045,-273,-948,-714,-880,-43
-377,461,-311,4425,-224,-1059,433,-490,965,-2228,-2458,-633,-1433,-1116,-3882,-320
4566,401,-64,3197,-560,-965,2296,-192,3065,-1938,-1910,-152,-1027,-790,-5317,207
-1766,-9,-218,1449,-1033,-1208,3520,-160,2402,-1851,-1700,-290,-1014,-812,-5045,448
-13304,-188,-226,808,-1459,-1276,4317,-24,1626,-1847,-1725,-156,-1014,-744,-3441,620
-14711,-299,-239,1308,-1174,-1052,3759,-162,-1757,-1734,-1661,-126,-1054,-790,-2747,388
436,-194,-482,2664,-124,-942,4289,-288,-6528,-1619,-1582,-228,-984,-690,-1776,92
15545,26,-620,3887,367,-856,4643,-194,-2993,-1468,-1663,-224,-991,-635,612,45
5845,11,-771,4240,403,-884,3550,-90,-517,-1391,-1966,-267,-931,-637,2745,-143
-1126,-11,-899,3348,265,-925,2950,-49,-3052,-1499,-2328,-90,-1048,-637,3233,-175
-3736,-3,-1578,1404,329,-954,2875,-77,-1233,-1653,-2556,-230,-1101,-675,2151,-56
-4371,-456,-2756,-431,-209,-1436,2486,-484,1945,-2119,-3056,-612,-1593,-1125,143,-418
-1605,-198,-2702,-1444,9,-1231,2692,-101,-293,-2064,-2858,-277,-1123,-739,-1859,65
65,37,-2664,-1721,62,-1214,2558,-135,-2475,-2306,-3190,-156,-1150,-675,-3237,22
4509,150,-2245,-856,-173,-1274,2507,-37,-829,-2504,-3610,-126,-1052,-812,-2928,-64
6127,182,-1783,437,-492,-1427,2294,11,-312,-2458,-3290,-66,-982,-639,-3699,-92
116,182,-1827,2094,-786,-1629,2326,184,165,-2121,-2803,-66,-1091,-603,-4368,26
721,54,-2070,3516,-686,-1453,2072,165,-238,-2170,-2807,-32,-1125,-741,-4610,9
5725,9,-1344,4078,-71,-982,2230,-24,476,-2187,-2843,-60,-1112,-663,-4589,-149
710,-201,-750,4410,335,-865,2464,-17,-1817,-2285,-2562,-81,-1106,-697,-3782,71
-3795,-294,-418,4383,167,-935,2422,11,-2650,-2226,-2447,-49,-1044,-678,-2967,182
-3997,-741,-492,3750,-296,-1312,2019,-390,-2179,-2630,-2924,-541,-1448,-1116,-3686,-264
-6282,-337,67,3442,-107,-1003,2290,-83,-1754,-2232,-2592,-341,-1050,-793,-3160,62
-6265,-167,-198,3060,-473,-1157,2307,-192,-185,-2140,-2485,-258,-1135,-837,-612,82
-2355,-66,-17,2681,-914,-1274,2226,-152,2008,-2125,-2296,-194,-1125,-695,3797,18
532,50,107,2290,-1167,-1184,1934,-154,3818,-1921,-2234,-228,-1061,-635,4200,-47
-3935,-56,-71,1813,-1470,-1269,1001,-109,2839,-1938,-2302,-222,-1033,-729,1883,9
-4629,150,-141,1687,-1376,-1297,912,-126,2081,-1993,-2409,-92,-1082,-669,852,-37
-4426,337,-173,1736,-1048,-1210,1906,-228,2657,-1949,-2349,-94,-1016,-678,-767,67
316,241,158,1836,-1078,-1150,2958,52,3074,-2032,-2170,-115,-1135,-643,-3605,163
10724,435,273,1949,-939,-1084,4723,160,4216,-1891,-2096,-241,-1097,-720,-5986,88
9498,137,-305,1817,-1221,-1510,4404,-548,2566,-2304,-2394,-563,-1440,-1116,-6984,-445
-1123,397,71,2136,-648,-1176,2967,-190,1830,-1934,-2006,-203,-1176,-773,-3541,-47
-1992,520,390,2302,-665,-1133,2679,-137,-884,-1966,-2028,-179,-1114,-709,-2664,314
-5071,478,469,2607,-761,-1184,2647,-107,-753,-1883,-1959,-103,-1031,-599,-3320,373
-6521,273,290,2737,-480,-1214,2481,-188,-637,-1768,-2019,-169,-1101,-746,-1425,271
-5056,214,92,2681,-671,-1225,2253,-243,-1858,-1725,-1934,-120,-1097,-684,-2777,24
-459,416,-24,2647,-761,-1301,2098,28,-4579,-1868,-2081,-158,-1014,-678,-4368,-245
2137,520,173,2215,-912,-1120,1834,-77,-7240,-1902,-1819,-179,-1020,-716,-5221,-62
6323,395,177,2232,-908,-1101,299,-118,-3254,-1908,-1800,-194,-995,-748,-7085,77
2256,156,-37,2662,-409,-1048,-2030,-13,1650,-1791,-2004,-118,-961,-654,-6405,188
6687,-384,-848,2664,-671,-1304,-1936,-516,826,-2202,-2715,-622,-1412,-1031,-5454,-196
6643,-196,-707,3065,-224,-971,501,-113,860,-1842,-2583,-228,-1103,-716,-3184,182
-1354,84,-712,3197,-237,-1020,3816,-190,2131,-1921,-2553,-171,-1091,-695,-895,260
-7979,358,-1078,3116,-482,-1112,8373,-66,-708,-1942,-2311,-86,-988,-648,2345,437
-7903,369,-1037,3065,-709,-1137,8712,-73,-2359,-1919,-2379,-169,-1078,-718,6384,365
4479,312,-1003,3009,-714,-1022,4553,-69,194,-1955,-2368,-124,-1071,-737,2483,209
5497,207,-1404,3063,-705,-1078,3169,67,965,-1919,-2389,-137,-1020,-680,-3752,137
-2766,145,-1563,3084,-573,-1155,2307,58,-752,-1983,-2741,-188,-1035,-788,-4919,405
-1593,13,-1683,2997,-733,-1069,1021,156,-649,-2168,-2711,-73,-1114,-686,-4344,273
1450,33,-1687,3190,-1108,-1029,103,90,-284,-2070,-2713,-96,-920,-633,-2326,43
5333,-320,-2311,2960,-1593,-1512,-633,-460,-1529,-2464,-2949,-563,-1378,-1152,-2174,-348
5521,-79,-2255,3529,-1206,-1276,-445,-173,-1696,-2004,-2289,-252,-1001,-750,-1201,11
1126,-124,-1864,3510,-1063,-1316,620,-105,-105,-2006,-1996,-311,-1103,-727,-592,18
410,-124,-1355,3197,-871,-1208,1838,-60,547,-1998,-1878,-250,-1103,-695,-844,79
991,-328,-1485,3075,-784,-1157,3297,-26,-286,-2006,-1857,-171,-1155,-733,333,122
-1469,-284,-942,3414,-709,-1142,4598,-81,540,-1966,-2000,-149,-1010,-692,150,116
-2079,-96,-788,3361,-573,-1046,5626,-58,611,-1838,-2049,-260,-1042,-746,-1493,201
-1632,120,-537,3037,-818,-1069,5718,-107,1180,-1781,-2019,-135,-1048,-637,-2304,305
-12514,601,-141,2796,-1193,-1199,7083,-167,-1644,-1817,-2034,-239,-1046,-643,-2558,224
-12986,806,331,2862,-861,-1095,7830,-77,-3170,-1838,-2270,-264,-952,-688,-2349,190
-4010,605,395,2560,-988,-1406,5477,-601,1937,-2592,-3026,-599,-1423,-1120,-2343,-294
9676,740,392,1174,-752,-1067,4491,-292,4643,-2040,-3039,-220,-1108,-718,-1201,-9
7000,663,92,-1753,-631,-1086,3416,-205,1046,-1915,-2858,-241,-1067,-695,-778,13
1335,260,-277,-2583,-247,-1091,2488,-88,1397,-2036,-2494,-179,-1012,-684,-1310,3
-1605,-69,-884,-2824,-88,-1223,2121,-94,148,-2215,-2513,-58,-1031,-718,-1910,71
-1724,-149,-839,-2543,-386,-1489,1730,-115,-2639,-2389,-2336,-77,-1020,-650,-2251,128
2151,-239,-744,-47,-1766,-1617,1366,18,-8082,-2260,-2364,-103,-1014,-667,-2809,167
-6460,62,-1025,4875,-2624,-1470,705,5,-5151,-1991,-2289,-56,-1014,-631,-3177,271
-8336,97,-773,10383,-2502,-1419,73,39,-468,-1840,-2321,-98,-1037,-592,-3311,346
-1863,194,-716,12664,-1617,-922,-1050,48,3963,-1853,-2447,-66,-1031,-692,-2717,205
-2033,-192,-1429,14045,-282,-477,-1685,-452,7637,-2343,-2830,-499,-1380,-1076,-2370,-360
5564,101,-1155,14882,1163,-167,-305,-56,5118,-1921,-2536,-213,-1116,-720,-814,-28
2665,88,-1252,11365,1495,-445,1193,-20,-3151,-2032,-2456,-173,-1103,-784,-1276,24
1336,-192,-1355,6097,1099,-690,3823,45,-5618,-2209,-2257,-124,-1101,-793,-2696,90
-64,-282,-929,1857,671,-914,5618,141,-4921,-2179,-2264,-222,-1048,-754,-2539,50
314,-307,-497,-778,625,-1012,3037,84,-4715,-2057,-2522,-209,-1046,-733,-1983,41
288,-358,-307,-1619,599,-1057,-456,67,-2205,-2004,-2694,-175,-1057,-601,-1597,137
-3891,-213,0,-2300,714,-1069,-2651,-15,246,-2128,-2568,-137,-1022,-348,-2168,182
-3415,199,137,-2826,318,-1044,-9169,60,3689,-2068,-2560,-64,-1025,-486,-2304,111
-4072,395,512,-4657,-556,-1223,-14905,75,5166,-1981,-2389,-139,-1069,-569,-2032,154
-3567,-13,39,-4187,-1896,-1651,-8515,-435,3480,-2330,-2466,-626,-1487,-1065,-2600,-294
-1193,288,-83,531,-2121,-1252,2788,-128,-2936,-2006,-1900,-260,-1093,-754,-2364,118
-309,326,20,8209,-1987,-1095,11544,-96,-6720,-2019,-1993,-243,-1014,-782,-2434,109
2890,201,39,14011,-1653,-1118,15434,-105,607,-1898,-2149,-226,-1127,-746,-2085,9
4696,-20,627,12534,-1746,-1238,6676,-103,2742,-1685,-2185,-196,-1048,-703,-1397,37
6070,-194,716,9602,-2025,-1329,-2619,-137,2763,-1510,-2234,-279,-1059,-822,-1310,109
-1901,-290,271,6084,-1972,-1227,-2949,-141,774,-1553,-2432,-194,-1033,-895,-1427,122
-8350,-184,-235,2449,-1921,-1099,2034,-194,-565,-1623,-2332,-184,-991,-686,-1591,139
-5888,233,-720,1004,-950,-1040,11260,-169,1619,-1670,-2345,-226,-1040,-522,-1898,118
-13717,539,-1116,1589,-254,-1044,19724,-30,1445,-1746,-2366,-167,-984,-584,-2102,141
-12692,356,-1261,720,-769,-1542,14889,-539,3836,-2226,-2683,-618,-1502,-988,-2605,-286
7141,782,-548,-922,-379,-1133,8901,-169,2466,-2074,-2460,-220,-1150,-733,-2194,75
25055,831,-399,-1932,-399,-1091,6169,-247,-3491,-2068,-2379,-160,-1112,-959,-2255,-9
10467,695,-746,-2076,-443,-1044,-1465,-239,-1232,-2100,-2125,-237,-1172,-1120,-2257,35
-9016,111,-1312,-3680,-443,-956,-5109,-135,-1297,-2111,-1917,-173,-1118,-1052,-2268,69
-3228,-588,-1646,-3908,-814,-1125,-3718,-149,-2267,-2251,-2153,-181,-956,-844,-2253,41
7725,-814,-1898,-1504,-1536,-1257,-3337,16,-1395,-2289,-2138,-66,-935,-835,-2360,84
4990,-861,-1966,2837,-1625,-1189,2409,71,849,-2055,-2045,-69,-893,-661,-2221,169
3991,-633,-1614,6538,-1082,-1144,13786,-15,621,-1974,-1970,-101,-1052,-646,-2289,203
78,-362,-1191,6785,-833,-899,16158,-22,-1215,-1744,-1585,-218,-933,-247,-2262,177
-5158,-799,-1878,5369,-1074,-1363,7860,-575,-2549,-1970,-1904,-635,-1459,148,-2645,-120
-2007,-367,-1525,4142,167,-1044,8017,-356,-3428,-1389,-1691,-198,-1095,995,-2279,248
-290,-96,-1027,2686,559,-920,6041,-426,223,-1419,-2038,-184,-1037,576,-2194,92
159,126,-592,1285,114,-1127,797,-586,1138,-1676,-2121,-154,-942,-83,-2155,143
2781,158,-575,518,75,-1301,-2483,-595,977,-1874,-2223,-105,-1020,111,-2032,222
-6162,-41,-618,-11,-135,-1327,-4696,-286,5407,-2045,-2570,-122,-1046,-109,-1861,246
-12506,-141,-377,686,-697,-1338,-1604,107,1497,-2219,-2607,-41,-1014,-1791,-2059,201
-14744,-41,158,1725,-712,-1067,4217,233,1045,-2270,-2788,-135,-1118,-3120,-1942,235
-11411,201,201,2307,-646,-925,5390,-207,3179,-2294,-2613,-120,-1148,-2398,-2008,192
-1389,410,22,3450,-918,-1174,2628,-905,4728,-2411,-2530,-98,-1103,-935,-2004,148
5483,303,9,3305,-1614,-1614,-2008,-2202,1841,-2758,-2984,-650,-1440,109,-2441,-275
13995,880,618,3184,-897,-1131,-5353,-2500,-1528,-2111,-2588,-194,-942,1119,-2130,67
8070,1031,405,3457,-865,-1084,-5728,-1608,-2260,-2053,-2677,-258,-993,322,-2070,9
3901,846,-41,4400,-1172,-1065,-903,105,-5763,-1759,-2194,-301,-1061,-1244,-2136,148
2081,452,-441,4312,-1363,-1089,8386,1084,-7789,-1653,-2132,-245,-1112,-2651,-2151,201
3318,-73,-1012,4459,-899,-1208,10952,1325,-3646,-1900,-2496,-224,-1086,-2647,-2140,56
3904,-399,-1642,4726,-284,-1231,3314,1419,-2326,-1987,-2517,-49,-1099,-2311,-2217,77
3326,-771,-2183,5117,-233,-1178,-1817,1421,-3443,-2010,-2309,-22,-1142,-2140,-2083,94
465,-788,-2059,5062,-720,-1318,-3850,1385,-1611,-2275,-2313,-152,-1078,-2249,-2091,114
-415,-675,-1178,3250,-1374,-1627,-4949,1608,-2141,-2398,-2504,-175,-1067,-2277,-2115,173
-10000,-756,-927,1534,-1344,-1829,-5711,1080,-1932,-2564,-3035,-612,-1427,-2954,-2362,-245
-19967,-58,237,1204,-222,-1074,-2164,1114,-1158,-2059,-2720,-220,-986,-2372,-2076,75
-6960,486,816,2075,3,-910,2351,503,2146,-2019,-2579,-224,-1118,-1197,-2074,37
12408,946,720,3390,0,-846,4136,192,4913,-1964,-2341,-81,-1065,-650,-2174,11
13366,1070,588,4244,-141,-788,4112,326,3308,-1964,-2436,-75,-1003,107,-2055,79
1677,1223,292,5283,-605,-914,-3886,26,443,-1993,-2383,-94,-967,799,-2055,148
2241,1195,797,6029,-763,-931,-6542,-169,-279,-2079,-2756,-35,-1044,806,-2004,94
-6691,855,867,6159,-590,-1010,2477,-288,224,-2174,-2981,-73,-978,571,-1936,97
-9060,650,-422,4709,-465,-1027,9493,-486,-507,-2275,-2909,-175,-939,271,-1955,256
-1898,145,-1244,3180,-345,-1029,9223,-299,-209,-2330,-2517,-181,-1012,271,-2028,201
2685,-443,-2517,1314,-750,-1593,3516,-844,-544,-2664,-2243,-718,-1553,-282,-2509,-241
588,35,-2575,708,-375,-1287,-782,-820,806,-1989,-1810,-256,-1135,-233,-2040,30
-649,271,-2660,256,67,-1186,-2817,-680,3287,-1604,-2266,-211,-1074,9,-1898,5
4243,-164,-3084,754,586,-1225,2486,-243,4677,-1574,-2289,-181,-1076,-62,-2045,156
526,-690,-3335,931,341,-1331,8893,235,3796,-1572,-2226,-169,-1091,-805,-1951,169
-4091,-886,-3288,891,-37,-1195,11999,548,-775,-1706,-2292,-94,-995,-1487,-1872,167
132,-854,-2485,-490,-194,-1101,12236,522,-939,-2098,-2300,-149,-1037,-2185,-2023,197
570,-729,-1663,-2304,-450,-1142,8577,246,-2503,-2323,-1976,-156,-1059,-2123,-1932,233
-2774,-494,-618,-4274,-603,-1120,3022,-105,-1132,-2209,-1864,-107,-993,-1203,-1921,203
-4224,-71,-92,-5447,-712,-1150,1881,-318,-2170,-2064,-1891,-211,-988,-220,-2006,171
-8685,-311,-139,-2083,-1176,-1297,-286,-1129,-2354,-2404,-2234,-637,-1402,-316,-2502,-269
-7377,427,382,5758,-1361,-931,-341,-1174,744,-1917,-1697,-149,-1016,118,-2085,120
4267,765,348,11573,-2121,-1155,3689,-1235,984,-1806,-1908,-267,-1065,-45,-1993,20
3881,703,13,11090,-1849,-1165,10447,-1370,1871,-1742,-1817,-260,-1035,135,-2151,116
-21,582,-213,8999,-648,-993,3782,-1559,1337,-1676,-1734,-205,-1054,173,-2121,235
2872,471,-56,7051,-358,-1189,-11367,-2004,5,-1798,-2285,-160,-1067,571,-1991,54
4609,275,-77,3906,-211,-1638,-12893,-2215,-1860,-1766,-2343,-211,-1035,1804,-1972,88
650,128,-54,1506,-497,-1927,-9868,-1853,-4786,-1768,-2617,-179,-1074,2134,-1849,71
2101,145,1,1674,-867,-1936,2775,-624,-4746,-1715,-2605,-164,-1069,499,-1904,79
8790,188,263,2266,-1223,-1223,22169,573,572,-1868,-2372,-122,-1054,-871,-2051,128
-118,65,-307,2094,-1691,-1472,17955,989,2656,-2511,-3079,-686,-1455,-2656,-2400,-313
-13414,535,-81,1263,-580,-1008,5920,1084,-2432,-2232,-3022,-358,-1025,-2347,-1987,137
-14803,571,559,-107,-273,-705,-241,7,-899,-2226,-2773,-330,-1101,-846,-2066,143
-2146,550,622,-850,-876,-582,-2796,292,1596,-2168,-2513,-328,-1142,165,-2051,90
8148,471,9,-2807,-1812,-469,-1548,1336,1855,-2111,-2306,-237,-1116,-294,-1976,107
5408,384,-362,-4219,-2270,-247,514,1755,-228,-1847,-2045,-269,-1059,-963,-1927,111
2008,201,-780,-4587,-1759,-469,3408,1553,-2423,-1589,-2059,-198,-939,-1723,-1964,128
2558,-130,-852,-3041,-499,-548,1102,1689,557,-1474,-2040,-301,-1078,-2477,-1996,171
5309,-358,-884,1947,386,-386,-9499,1785,-1881,-1568,-2025,-218,-1067,-2930,-1917,160
1340,-341,-750,8060,735,-816,-10949,991,-4304,-1800,-2238,-311,-993,-2570,-2019,169
-2219,-595,-1282,13818,107,-1821,-10351,-1878,-852,-2485,-2843,-803,-1427,-1991,-2458,-271
1585,-256,-859,16358,-181,-2038,1553,-3516,1470,-2151,-2421,-198,-1148,-1193,-2034,137
1718,-22,-744,12331,-835,-2170,16230,-2588,-59,-2151,-2892,-37,-986,-1267,-2013,231
1647,124,-827,9037,-1086,-1974,6486,-2130,-1258,-2230,-3237,84,-997,-893,-2076,137
2520,39,-954,5748,-1672,-1608,8318,-3620,1696,-2209,-2926,22,-1059,86,-2189,139
-1197,18,-1193,3627,-2072,-1227,22403,-3627,3299,-2064,-2654,139,-1069,950,-2213,167
-2481,58,-1244,1415,-1197,-705,27270,-1519,1366,-2081,-2468,167,-1037,1234,-2179,82
-10552,-88,-1248,-1795,-1010,-194,22292,114,-813,-2053,-2494,35,-956,861,-2087,124
-16876,-143,-1593,-2266,-548,-371,12983,1087,-1894,-2106,-2432,67,-1025,-250,-2042,131
-6335,-271,-1225,-115,290,-988,3625,2041,-327,-2064,-2300,43,-1050,-1074,-2066,101
-2549,-590,-1235,124,-499,-1855,-1208,2830,2231,-2417,-2298,-431,-1461,-2198,-2624,-433
3773,-62,-646,-362,-535,-2089,314,3727,5026,-1898,-1964,-162,-1146,-2121,-2194,50
-2690,45,-716,-1218,-524,-2168,-846,3254,4052,-1876,-2228,-139,-1116,-1534,-2174,39
-5896,11,-822,-1497,-1519,-1636,-5000,767,-504,-1802,-2098,-83,-944,-667,-2151,190
1524,263,-546,1877,-1806,-1140,-10807,-497,-1105,-1740,-2128,-233,-1037,-684,-1996,120
3158,480,-62,6442,-626,-863,-24574,682,-2130,-1604,-2189,-284,-1046,-895,-1855,71
4698,290,26,7653,-22,-863,-32767,1730,-2246,-1738,-2206,-245,-993,-450,-1887,226
-1901,248,-345,6716,-269,-850,-24525,2273,-809,-1812,-2096,-250,-978,-294,-1874,154
-6230,246,-631,4140,-437,-531,-2458,1059,1056,-1774,-1976,-256,-976,-435,-1853,165
3185,431,-671,1638,-303,-520,31725,-661,1436,-1553,-1825,-313,-1029,-435,-1972,256
8965,167,-1082,2677,-1044,-1280,32767,-1772,282,-2059,-2215,-637,-1504,-952,-2541,-299
9727,365,-658,6753,-778,-1095,20463,-1084,1910,-2643,-1915,-277,-1114,-550,-2315,26
3888,92,-556,7804,-861,-1133,4557,-1840,1078,-3729,-2098,-254,-1167,-620,-2257,41
533,79,-375,8601,-1061,-1059,4630,-3171,114,-3490,-2204,-230,-1101,-695,-2311,3
-4350,109,-509,7029,-1602,-1172,6037,-2688,-1621,-709,-2172,-267,-1114,-703,-2247,77
-7792,152,-458,2087,-1680,-1576,7178,-1917,-3447,407,-2283,-124,-1116,-575,-2168,58
-3870,237,-256,284,-763,-1093,1212,-2300,-4039,-839,-2588,-305,-1172,-518,-2157,-9
2022,337,-181,-490,-205,205,-1957,-2230,-3076,-1182,-2605,-175,-1091,-477,-2006,54
-2136,497,145,-196,407,454,182,-2106,-2307,-1189,-2142,-173,-1101,-480,-2049,7
-5664,299,241,1227,1327,218,2241,375,-1268,-982,-2045,-305,-1101,-356,-2076,152
-1124,-128,-584,-401,652,-416,5709,2865,-99,-1563,-2690,-684,-1516,-846,-2389,-343
2785,1,-767,-1050,972,-567,2581,4470,-360,-1393,-2226,-382,-1172,-646,-2028,135
10335,-233,-727,405,131,-1172,-7593,4344,2754,-1646,-2517,-277,-1182,-890,-1964,133
10492,-35,-524,1408,-692,-2021,-10800,4242,-142,-1802,-2786,-350,-1099,-950,-2079,41
5978,114,-548,263,-731,-2002,-7481,2456,202,-1717,-2504,-350,-997,-1091,-1966,171
3448,-96,-716,-2151,-620,-1376,-648,554,-262,-1548,-2311,-307,-993,-1022,-1898,241
-2630,-541,-882,631,-218,-1365,4834,1063,-2632,-1619,-2355,-309,-935,-897,-1981,45
-11985,-709,-1174,8313,-986,-1642,4370,2094,-449,-1844,-2240,-141,-899,-837,-2032,141
-5177,-565,-1629,12483,-1706,-2249,-3324,2417,-16,-2094,-2519,-132,-956,-646,-2013,175
2692,-365,-1548,11380,-1683,-1736,-1604,2222,243,-2517,-2788,-88,-1012,-678,-2074,292
-7476,-767,-1561,7174,-1821,-1766,3486,1227,-1282,-3750,-3047,-509,-1333,-1086,-2607,-218
-10114,-303,-1672,4283,-1259,-2094,1860,1436,-773,-4272,-2575,-137,-1076,-607,-2234,135
1412,-269,-1589,1016,-1295,-2155,-3563,967,2655,-3122,-2426,-62,-1044,-475,-2094,229
-1131,-313,-1216,-1568,-1318,-1340,-3733,0,5266,-1218,-2179,-24,-839,-233,-2123,139
-3718,-94,-995,-1608,-935,-1095,-2632,-1054,6057,-1167,-2111,-39,-1016,-309,-2079,171
5093,58,-716,-505,-237,-1042,-394,-1904,187,-1823,-1919,50,-925,-303,-2140,220
4725,184,-554,384,469,-886,43,-2411,-4028,-988,-1774,-7,-903,-375,-2160,239
-4671,510,229,1259,454,-844,-8858,-3060,-390,-944,-1968,3,-929,-445,-2096,209
-6730,767,642,1470,163,-761,-18755,-3079,-4015,-1504,-2094,139,-878,-433,-2079,69
2330,897,222,1268,229,-699,-11401,-3982,-707,-2017,-2666,-71,-1016,-601,-2066,62
4008,452,-341,1033,-301,-1316,10694,-6904,559,-2713,-3409,-531,-1472,-1110,-2430,-326
-2010,512,-115,1442,-173,-1280,32767,-7694,-1381,-2419,-2796,-273,-1018,-776,-1921,58
-1977,99,-407,1515,-595,-1438,32767,-5226,-2443,-2170,-2617,-252,-1063,-773,-1898,77
-6886,-64,-967,1532,-650,-1644,9463,-1993,-825,-2019,-2581,-254,-1018,-744,-1819,148
-2805,90,-925,1926,-539,-1576,9189,-859,1237,-2168,-2353,-190,-1146,-854,-1691,199
1223,273,-414,2275,-908,-1542,6610,275,1640,-2492,-2238,-282,-1214,-995,-1785,30
9829,365,-235,2207,-1568,-1557,-4157,2305,-889,-2436,-2243,-388,-1199,-1074,-1953,41
5286,269,-337,2686,-1297,-1440,-10272,2909,-1292,-2573,-2121,-354,-1155,-1012,-2013,107
-632,137,-641,2901,-1316,-884,-9608,2503,1546,-2502,-2202,-271,-1046,-1069,-1964,33
-3657,111,-607,2997,-1680,-888,-5622,3043,3333,-2436,-2098,-43,-952,-829,-1861,184
4987,-75,-1050,3026,-2062,-1476,-1927,3001,-2466,-2873,-2536,-531,-1548,-1244,-2338,-241
8173,488,-441,2209,-850,-1018,2313,2994,-6056,-2362,-2151,-233,-1093,-954,-2006,73
1054,663,-539,1872,-260,-1069,-1697,2196,-2762,-2196,-2072,-141,-1101,-997,-2036,156
-4878,382,-531,2185,13,-880,4853,2332,-863,-2096,-2191,-247,-1191,-1059,-2047,99
-7306,50,-505,1968,-571,-822,19975,1853,2503,-2030,-2221,-345,-1208,-978,-1889,235
-1850,-15,-854,1263,-1069,-842,18875,527,4596,-2102,-2296,-401,-1201,-942,-1900,214
430,35,-1261,1187,-1338,-814,9412,-290,2468,-2260,-2449,-416,-1137,-852,-1964,226
-1219,165,-1363,1825,-1789,-918,8531,-1476,1263,-2507,-2447,-339,-1123,-786,-1993,107
2961,88,-1391,2941,-1902,-914,12446,-3699,2349,-2445,-2402,-228,-1137,-646,-1976,135
2838,-35,-1120,5337,-1565,-765,13206,-5875,-367,-2194,-2266,-122,-1127,-501,-2079,120
-761,-529,-1250,6608,-1815,-1018,8677,-8786,-971,-2438,-2598,-418,-1446,-890,-2560,-362
-1857,-145,-920,6105,-1093,-541,6597,-5743,1319,-1985,-2221,-17,-1080,-646,-2172,-9
-3052,-20,-550,4542,-424,-458,3531,-648,-1088,-1927,-2134,-39,-1127,-727,-2317,77
-5664,-7,-614,4163,16,-456,207,-58,-1872,-1847,-2108,-9,-1176,-720,-2206,48
-2561,407,-592,3293,188,-656,-2570,309,-1385,-1702,-2328,-60,-1146,-780,-2253,88
2471,524,-420,2769,-145,-1010,-5816,1578,-1876,-1455,-2313,-73,-1074,-641,-2149,163
3923,414,-120,3689,-158,-1044,-10534,2786,-1275,-1340,-2300,-69,-1099,-652,-2121,141
-563,480,-96,4523,-69,-1123,-11305,3599,-621,-1278,-2345,-115,-999,-707,-2053,75
-7265,128,-260,5249,-137,-1027,-4272,2185,116,-1506,-2277,-143,-1029,-629,-2121,152
-6786,101,184,5660,50,-986,3216,1506,1726,-1640,-2177,-145,-908,-661,-2100,258
1197,-137,-147,4525,-128,-1406,9542,1268,1037,-2213,-2668,-556,-1327,-1180,-2426,-224
1732,143,-282,3727,-41,-1093,6744,957,-933,-2347,-2294,-303,-1108,-852,-2083,175
-412,444,-582,2716,-271,-1061,-4889,1410,-975,-3241,-2185,-252,-886,-737,-2140,79
646,729,-897,1457,-641,-1091,-2696,1828,220,-3614,-2051,-179,-876,-690,-2100,239
2648,465,-1103,-198,-149,-1214,4613,1067,-1726,-529,-2000,-126,-871,-558,-2106,175
2488,192,-1037,-588,222,-1221,5452,388,-2107,2219,-2230,-252,-986,-560,-2028,60
-4993,-28,-799,1404,-147,-1067,3508,-1199,-956,-705,-2417,-169,-831,-701,-2211,135
-7050,-264,-903,4915,-646,-1312,1549,-2971,1552,-933,-2247,-188,-824,-703,-2236,131
-1863,-252,-230,6331,-707,-1231,114,-2466,2056,-701,-2313,-139,-920,-601,-2209,152
2737,-186,-105,4327,-343,-873,-539,-1074,-4005,-884,-2458,-135,-893,-577,-2209,171
3847,-345,-939,2051,-1229,-1355,-3869,-616,-2226,-1340,-3052,-618,-1402,-1012,-2477,-313
-1597,62,-411,-424,-1864,-1257,-4930,765,947,-848,-2690,-115,-1046,-607,-1972,160
-2877,-22,-514,-5322,-3314,-1363,-4702,1796,751,-1116,-2734,-158,-1116,-678,-1785,233
3265,-169,-571,-8403,-3963,-1227,861,2328,2074,-1938,-2462,-167,-1063,-626,-1695,224
4741,-354,-665,-8598,-2436,-952,9323,1644,493,-3224,-2306,-160,-1180,-741,-1746,118
809,-524,-974,-4521,-484,-835,6691,75,542,-3595,-2349,-237,-1229,-701,-1727,197
-2522,-343,-1140,1453,-113,-786,-505,-465,654,-1574,-2285,-235,-1208,-729,-1700,173
-4594,0,-788,11167,-356,-948,-6129,-529,1491,-1044,-2162,-139,-1199,-624,-1787,118
-4300,290,-250,20817,-482,-961,-7459,-3109,-72,-2074,-2145,-186,-1269,-686,-1721,79
-614,337,-392,22181,-275,-1059,637,-8115,233,-2285,-2255,-113,-1255,-650,-1770,124
6340,-158,-893,12989,0,-1625,10281,-6286,-555,-3079,-2764,-499,-1668,-1184,-2283,-324
-8633,30,-592,3420,825,-1191,1084,-358,-5469,-2862,-2413,-173,-1306,-899,-1913,26
-3282,9,-612,-712,931,-1148,11567,2609,-3141,-2969,-2536,-115,-1129,-824,-1840,18
1932,252,-390,-2108,229,-1110,30100,3523,-983,-2739,-2641,-235,-1174,-673,-1742,99
1692,601,-158,2062,-275,-1084,22437,3431,-247,-2334,-2553,-303,-1069,-609,-1810,3
10642,556,-345,8160,-893,-1240,15553,2635,472,-2121,-2315,-386,-1035,-744,-1896,3
4175,337,-616,11850,-901,-1216,9512,1985,2772,-2511,-2223,-337,-952,-686,-1847,73
-517,103,-993,12069,-124,-950,1689,1170,2531,-2777,-2226,-111,-944,-690,-1697,145
-1084,-181,-1412,8128,-260,-880,-4906,156,-1380,-2892,-2172,-109,-952,-671,-1761,241
-607,-171,-1640,2558,-837,-982,-5436,-224,-1801,-2918,-2170,-83,-937,-601,-1725,337
-2583,-326,-2121,-1291,-1972,-1604,-3290,135,-382,-3409,-2360,-524,-1521,-1008,-2249,-299
-6126,150,-1421,-1812,-1155,-1287,5386,2302,779,-2943,-1968,-194,-1042,-629,-1979,39
-2947,233,-1054,-565,-9,-1137,2647,2562,1132,-2728,-2166,-213,-993,-620,-2091,33
1663,222,-688,160,444,-969,-6048,1285,-1157,-2564,-2306,-81,-929,-556,-2070,7
-45,184,-396,-1240,431,-1127,-7106,-1783,-883,-2811,-2407,-86,-912,-565,-2123,24
711,429,-273,-1623,-296,-1118,-4216,-4902,-854,-2990,-2592,-139,-869,-675,-2247,124
4568,275,-254,-1046,-488,-1238,5618,-5560,-1209,-2984,-2647,-113,-884,-658,-2117,163
2660,118,-313,546,-714,-1206,8228,-3737,611,-2826,-2496,-77,-822,-737,-2189,77
-2736,190,-458,1468,-948,-890,-471,-2443,1730,-2673,-2375,-118,-967,-776,-2059,71
-3143,348,-188,375,-526,-1008,-4832,-2553,-45,-2649,-2519,-141,-1054,-671,-2198,165
-4673,-271,-460,-499,-746,-1470,-5479,-1685,-514,-3188,-2922,-556,-1691,-1029,-2470,-282
32,-26,-184,329,-426,-1080,-2430,703,13,-2958,-2545,-279,-1242,-805,-1932,143
2332,77,433,367,-288,-1089,-722,1493,251,-2815,-2498,-218,-1197,-771,-1917,65
-516,88,339,1280,-663,-1191,4359,2520,-73,-2820,-2507,-26,-1140,-829,-1668,69
-1643,441,-290,2017,-1448,-1184,3363,3708,-952,-2662,-2313,3,-1197,-829,-1936,126
-4915,335,-827,2198,-2204,-1150,-6652,4615,-59,-2511,-2317,-58,-1091,-831,-1972,90
-6794,197,-905,2475,-1363,-1223,-12416,4841,430,-2509,-2366,-73,-1052,-793,-1910,109
-6765,131,-937,2543,-431,-1197,-25081,3727,433,-2424,-2368,-64,-1008,-709,-2000,92
-2570,369,-771,2047,-328,-1097,-20037,2645,-180,-2196,-2306,11,-846,-722,-1885,150
7269,378,-580,1532,-756,-1195,-3752,1419,-818,-2104,-2251,-88,-978,-624,-1689,277
-1631,-324,-799,-1427,-1708,-1521,-829,727,-1263,-2413,-2688,-505,-1348,-1135,-1972,-175
-4781,-198,-407,-3120,-1744,-1076,32709,254,-581,-2047,-2360,-224,-950,-758,-1761,220
-319,-188,-718,-1203,-1323,-888,32767,-2473,-281,-2047,-2245,-196,-1174,-814,-1893,211
14398,-113,-784,2437,-516,-801,32767,-2918,-427,-2028,-2300,-207,-1184,-784,-1800,205
6683,48,-567,5418,-944,-1071,30115,-1983,-270,-1930,-2300,-275,-1020,-767,-1834,207
-1665,397,-567,4726,-1427,-1174,12491,-2021,-72,-1942,-2326,-241,-1118,-799,-1913,246
-2967,101,-386,4159,-854,-1195,3324,-3505,-16,-1883,-2202,-316,-1008,-714,-1955,145
-2459,-311,-861,3009,-186,-1150,2503,-5377,297,-1755,-2281,-282,-1012,-763,-2074,154
-5736,-228,-1531,3780,-17,-1020,6254,-3642,17,-1642,-2187,-247,-1005,-709,-2108,33
-4346,-86,-1734,5141,231,-954,7858,-1595,-626,-1600,-2072,-375,-1074,-720,-2328,71
4025,-105,-1838,6567,-880,-1408,6531,661,-115,-1868,-2502,-844,-1453,-1165,-2800,-273
7417,190,-991,7736,-2515,-1129,3043,3395,455,-1487,-2332,-492,-1129,-788,-2336,84
164,-111,-918,5439,-3177,-1155,899,2569,-570,-1512,-2249,-390,-1110,-893,-2458,0
1589,-235,-912,3324,-1800,-1144,-1248,2100,-1724,-1450,-2209,-365,-1095,-805,-2424,82
4119,-273,-465,4481,-656,-1089,-2494,2486,-987,-1423,-2490,-386,-1157,-784,-2296,92
-588,-115,-1225,8226,-646,-946,-2541,2317,-630,-1472,-2266,-431,-1116,-771,-2287,82
-4141,94,-1676,9350,-599,-1155,-2817,884,42,-1455,-2204,-480,-1074,-801,-2230,160
164,241,-816,7249,-529,-1323,-3284,260,251,-1267,-2377,-267,-952,-680,-1962,114
4491,203,145,6301,-524,-1421,-3544,118,-88,-1193,-2449,-337,-976,-673,-2051,94
-2005,103,535,4498,-394,-1210,-3693,-724,-104,-1137,-2281,-339,-1001,-820,-2049,250
-9036,-284,-403,1883,-22,-1412,-3946,-1378,-265,-1529,-2700,-729,-1316,-1259,-2262,-124
-7094,271,-290,1512,448,-1118,-2984,-1067,-33,-1044,-2358,-354,-586,-722,-1902,205
-1263,326,-88,1063,561,-1161,-3294,-1069,192,-927,-2266,-277,-394,-807,-1917,295
3682,461,378,1253,618,-1225,-4253,-1165,1251,-971,-2338,-237,-505,-690,-1838,226
3333,277,1815,2036,295,-1208,-3520,-1108,363,-1114,-2149,-184,-616,-756,-1955,139
465,-120,1964,1772,94,-1333,-3130,-1798,-977,-1157,-2094,-188,-550,-914,-1942,143
-786,-141,303,-682,250,-1414,-4730,-2607,-1015,-1155,-2174,-81,-103,-795,-1900,131
-1810,-17,-1817,-2100,158,-1499,-5153,-2935,-1147,-1225,-2066,-71,214,-722,-1940,30
-1794,-122,-3139,-1634,-5,-1497,-10598,-1582,-755,-1144,-2206,-94,329,-744,-1883,-37
-1213,79,-3576,3,-186,-1318,-13598,648,-344,-1112,-2377,-60,448,-682,-1819,90
-1057,-241,-2568,2920,-1074,-1715,-1485,1794,-421,-1861,-2745,-550,-546,-1065,-2194,-309
-765,277,-1165,5009,-575,-1201,17825,2528,319,-1570,-2362,-220,-761,-758,-1832,-43
-597,480,-852,3574,-899,-1197,29787,997,335,-1572,-2268,-156,-1964,-854,-1861,45
766,571,97,1438,-1082,-1071,21117,-824,314,-1546,-2479,-141,-1857,-797,-1655,92
1325,629,661,-1659,-1201,-1035,3278,-1582,364,-1653,-2539,-98,-1551,-731,-1508,171
-103,361,384,-1495,-744,-1016,654,-2636,141,-1655,-2475,-198,-2358,-776,-1536,201
-380,331,-1078,4063,-343,-886,2977,-5916,128,-1651,-2377,-239,-2611,-643,-1502,256
-1077,501,-1212,9465,-216,-852,5573,-9644,413,-1832,-2164,-111,-3177,-494,-1631,337
-1287,595,-646,8607,-192,-910,9819,-6197,-61,-1781,-2191,-30,-2230,-603,-1738,284
3076,578,-173,6844,-546,-931,2577,-546,-705,-1821,-2251,-22,-1225,-609,-1853,239
-510,45,-799,4589,-2094,-1493,-10766,3286,-913,-2383,-2660,-552,-1770,-1063,-2294,-175
-6942,203,-910,-13,-2370,-1101,-6533,6065,28,-2068,-2319,-188,-1485,-673,-1829,131
-1327,101,-850,-2639,-2556,-1157,5443,6629,856,-2045,-2272,-60,-1221,-673,-1766,137
527,-90,-854,-4534,-2526,-1027,13924,5803,-269,-1866,-2219,-71,-852,-518,-1804,92
-2233,20,-890,-4184,-1872,-1010,11322,4587,1462,-1840,-2117,-96,-1078,-475,-1847,77
-3041,-105,-942,-1016,-1542,-1025,-10994,2963,4335,-1795,-2006,-60,-1086,-573,-1923,54
-739,-154,-47,3005,-814,-1110,-21329,1402,-1292,-1649,-1778,-47,-948,-452,-1825,116
1734,37,322,7617,-1280,-1206,-14703,554,-4553,-1708,-1695,-98,-1525,-420,-1898,50
1200,-13,-137,10468,-414,-1274,1204,820,205,-2045,-2072,-164,-1840,-556,-1825,54
507,-47,-75,12889,331,-1195,25825,1046,-2307,-2679,-2392,-3,-2028,-411,-1806,171
-3491,-511,-756,13428,-584,-1427,28703,75,-3511,-3265,-2915,-339,-1348,-976,-2394,-260
-2715,-392,-1176,11756,356,-1340,18779,-609,-1373,-2945,-2990,-9,-729,-631,-2196,114
-3717,-431,-1255,7711,633,-1233,11588,-2494,-2449,-2905,-3011,-73,-1800,-543,-2368,35
-1669,-279,-1120,3050,546,-839,4653,-3952,-2119,-2828,-2901,-113,-1702,-524,-2441,94
-390,-86,-799,-486,503,-761,1617,-2943,-92,-2651,-2905,-188,-1321,-614,-2515,90
2359,35,-448,-2215,22,-827,-241,-1485,4373,-2622,-2545,-17,-1968,-639,-2607,75
4653,-56,-720,-3539,-1979,-1125,-2434,-354,3368,-2553,-2530,5,-3005,-520,-2632,160
2784,-88,-607,-3243,-3693,-1025,-5341,9,127,-2611,-2658,-37,-2383,-601,-2522,190
-657,124,-113,-969,-2636,-812,-3652,371,306,-2611,-2651,-149,-1389,-773,-2453,158
288,-30,99,1557,-1212,-786,-3450,-152,-170,-2562,-2377,45,-1423,-748,-2379,167
1683,-375,-703,4747,-1231,-1193,-4480,-1951,681,-2739,-2458,-356,-1808,-1035,-2973,-299
4078,137,-558,5415,-109,-901,-607,-2028,3411,-2345,-2111,79,-418,-614,-2630,71
4517,309,-292,2809,-107,-969,-967,-1942,3801,-2353,-2145,-41,544,-780,-2522,7
-811,343,-294,-1244,-30,-1099,-5630,-1719,1955,-2196,-2074,52,271,-705,-2502,-17
-3134,114,-599,-5673,111,-1059,-4681,-477,984,-2008,-2185,116,-45,-652,-2449,37
-2350,-96,-1069,-5547,71,-1110,-5605,1108,350,-2019,-2332,82,-58,-678,-2383,22
1398,-43,-1086,-2475,-339,-956,3227,1285,-1499,-1944,-2330,82,-220,-661,-2240,60
108,122,-897,2079,-537,-1044,14635,-778,-2440,-2198,-2355,-15,-682,-580,-2298,33
-1513,154,-890,5924,-388,-1135,18010,-3441,-218,-2240,-2253,-39,-882,-580,-2372,-71
-1139,67,-976,10264,-171,-997,22352,-2345,-415,-2202,-1962,-15,-999,-622,-2543,-126
-2467,-245,-1274,13034,-631,-1363,9627,-1282,-186,-2588,-2502,-556,-1504,-1093,-2930,-590
-2356,79,-852,12412,-260,-1137,688,-2213,647,-2028,-2268,-139,-1274,-667,-2500,-264
-1752,45,-714,11145,-750,-1221,4083,-1676,257,-2023,-2226,-11,-1800,-763,-2449,-277
-1614,277,-801,7851,-445,-1135,4442,1208,1,-1964,-2177,-75,-1295,-669,-2326,-71
-1210,324,-665,5213,-20,-1089,5064,4398,-513,-1985,-2153,-118,-305,-716,-2191,-28
-1833,211,-586,3437,-267,-1089,1896,5234,-694,-1930,-2313,-233,-761,-746,-2030,-26
-1727,354,-531,2121,-511,-1135,-1617,4146,-2085,-1938,-2347,-201,-810,-824,-1838,82
-233,537,-405,1112,-697,-1165,-1531,4600,-2879,-1891,-2347,7,-573,-776,-1740,207
1128,512,-352,-365,-967,-1172,-2615,4459,-1478,-1979,-2260,-56,-333,-782,-1746,307
807,275,-488,-1186,-467,-1167,-5739,2873,-203,-2021,-2183,-49,-335,-701,-1738,352
-2268,-177,-905,-890,-345,-1678,-8858,1408,443,-2475,-2596,-486,-529,-1180,-2243,-230
-752,137,-643,1193,24,-1297,-5999,1751,739,-1949,-2311,-103,-203,-824,-1751,11
-1235,75,-503,1891,-296,-1189,-5290,2300,1075,-2057,-2302,-262,103,-908,-1465,135
-777,-35,-584,1238,-805,-1340,-737,2009,2199,-2010,-2264,-175,145,-793,-1276,271
-66,20,-648,763,-1050,-1365,-482,944,2018,-2042,-2294,-260,-311,-669,-1067,214
367,24,-737,-558,-746,-1433,-9757,-501,41,-2042,-2372,-324,-13,-722,-1054,122
201,37,-607,-2032,-514,-1380,-13717,-1108,-949,-1798,-2441,-348,456,-684,-954,186
74,177,-580,-752,-503,-1342,-13343,-537,-1374,-1670,-2460,-343,-124,-582,-718,218
125,54,-571,4349,-724,-865,11910,277,-1045,-1691,-2443,-460,-1834,-567,-771,348
30,-17,-484,7070,-1161,-733,31604,1031,-2893,-1896,-2424,-333,-2200,-599,-1140,399
-241,-309,-903,4068,-859,-1399,32767,150,-1981,-2560,-2888,-754,-1974,-997,-1972,-143
-120,22,-601,2899,-433,-1065,21513,-661,-1228,-2355,-2530,-337,-1252,-705,-1829,216
-103,39,-460,-79,-616,-948,2200,-1589,-698,-2209,-2451,-433,-1493,-695,-2008,271
-501,-22,-507,-4874,-910,-1001,3731,-3124,-841,-2013,-2619,-560,-1423,-671,-1998,275
-542,171,-688,-4857,-1436,-1080,10785,-4016,-1249,-1810,-2605,-424,-1408,-754,-2130,373
-209,169,-607,912,-2215,-1174,13070,-3382,-874,-1806,-2202,-522,-2217,-839,-2558,346
-17,109,-571,8539,-2679,-1035,3501,-2483,-241,-1772,-2036,-507,-2260,-812,-2709,275
607,265,-586,12419,-1887,-865,-4074,-3020,763,-1791,-2311,-431,-3682,-731,-2813,297
-8,256,-633,12634,-384,-761,-6450,-3482,969,-1661,-2317,-262,-3622,-709,-2756,297
-283,341,-646,11467,382,-942,-1444,-4231,1462,-1612,-2351,-105,-995,-673,-2581,173
488,-109,-878,6376,154,-1350,175,-5390,125,-2034,-2790,-373,-1985,-1022,-2973,-369
138,84,-509,2611,-149,-1101,-1293,-4072,-1024,-1600,-2298,107,-2470,-646,-2375,16
-981,143,-637,1246,-403,-1208,-3612,-3874,1806,-1755,-2287,267,-2323,-824,-2272,88
97,192,-609,399,-288,-1221,-369,-3520,1971,-1700,-2260,378,-1597,-750,-2311,84
-369,216,-575,-586,-1074,-1316,7368,-1680,-940,-1495,-2123,371,-1508,-799,-2145,277
234,356,-692,-667,-1410,-1261,-2068,674,-202,-1621,-2140,343,-1942,-669,-1996,256
-265,226,-667,343,-912,-1091,-9444,4191,838,-1585,-2272,358,-1587,-697,-1866,99
-11,220,-697,1566,-1065,-1235,612,3963,-476,-1523,-2234,137,-1197,-929,-2032,109
-96,301,-597,1981,-767,-1229,13415,4268,-1797,-1580,-2285,-137,-773,-793,-1770,201
-306,267,-552,2109,-186,-1212,13428,4547,-661,-1595,-2249,-235,-974,-876,-1531,229
-647,-92,-856,1906,-916,-1387,501,3693,-299,-2113,-2713,-754,-1450,-1265,-1717,-275
-515,301,-462,1736,-484,-967,-1333,2973,-1327,-1855,-2500,-443,-1095,-897,-1372,224
-718,290,-471,1619,516,-971,2055,1097,-874,-1921,-2494,-475,-1116,-741,-1267,216
-859,248,-614,2170,789,-776,3131,-252,429,-1778,-2517,-569,-793,-761,-1344,175
-843,-101,-490,3491,1150,-793,3063,-290,85,-1657,-2417,-692,-839,-690,-1429,231
-735,-101,-460,2530,1297,-890,-3605,-1259,-103,-1612,-2372,-758,-803,-665,-1355,273
-694,111,-607,1896,625,-969,-13462,-1120,1,-1715,-2321,-705,-758,-731,-1382,197
-598,-37,-422,2043,-94,-1076,-10768,776,667,-1785,-2160,-637,-624,-607,-1440,148
-639,-184,-433,1864,-908,-1012,-1033,1889,630,-1757,-2177,-584,-563,-714,-1510,148
-648,209,-511,2134,-2168,-1197,11035,2313,-1059,-1725,-2345,-650,-822,-722,-1531,73
-781,-7,-848,1860,-3969,-1710,14207,2002,-1629,-2074,-2732,-1071,-1120,-1084,-1934,-435
-593,62,-626,2130,-4050,-1301,416,2100,-290,-1742,-2353,-701,-565,-846,-1655,37
-595,-235,-986,1921,-2181,-1267,-3718,152,310,-1787,-2287,-780,-607,-816,-1689,118
-579,-49,-784,1521,-1008,-1282,5000,-2349,651,-1657,-2209,-776,-671,-910,-1655,148
-570,352,-503,1887,-756,-1457,11043,-3876,1075,-1685,-2055,-678,-433,-712,-1812,201
-513,79,-646,2618,-311,-1165,9120,-8045,895,-1695,-2191,-678,-243,-780,-1864,105
-441,-126,-991,3731,-963,-1029,90,-8058,-68,-1663,-2281,-584,-120,-827,-1857,7
-309,-786,-1559,5624,-1025,-1142,-2223,-3537,-417,-1938,-2262,-565,-160,-682,-2108,56
-304,-1167,-1199,5654,-299,-922,-780,1397,-1739,-2062,-2321,-560,-160,-835,-2253,126
-295,-516,-465,3256,-577,-1018,-439,6280,-2782,-2183,-2330,-475,-241,-776,-2238,82
-468,-643,-599,948,-1883,-1625,-11386,7502,-1536,-2622,-2875,-822,-778,-1218,-2756,-494
-340,-575,-392,1527,-956,-1163,-19471,6474,1025,-2283,-2553,-350,-452,-752,-2438,-162
-328,-443,-367,2072,-362,-1063,-6184,4206,578,-2441,-2517,-414,-560,-733,-2585,-143
-339,-211,-727,2786,45,-959,10743,1725,-207,-2257,-2383,-277,-563,-699,-2566,60
-328,-164,-1440,3806,635,-918,26994,-256,263,-2062,-2306,-122,-712,-688,-2409,118
-268,-256,-1546,2965,608,-1031,30171,-273,-83,-2151,-2360,131,-878,-695,-2260,-24
-309,186,-1348,1627,-5,-1025,19147,686,-320,-2145,-2270,448,-824,-716,-2153,41
-304,224,-1580,2573,-669,-1078,-1346,-149,-900,-1970,-2204,527,-324,-599,-2172,165
-274,399,-1606,6029,-243,-1172,-2986,-2179,-896,-2032,-2328,718,-373,-633,-2055,169
-303,631,-1110,6795,-32,-1137,7428,-3303,-480,-2066,-2226,795,-637,-705,-2155,250
-580,116,-831,4858,-1101,-1559,16102,-2343,-526,-2404,-2685,346,-1272,-1142,-2634,-62
-548,561,-418,3435,-1197,-1336,7937,-98,233,-2157,-2375,593,-1135,-733,-2281,297
-681,742,-226,1104,-1465,-1316,-4802,450,596,-2049,-2243,639,-1293,-793,-2262,209
-742,1004,122,1078,-1793,-1346,263,-69,867,-2049,-2266,597,-1480,-801,-2443,167
-600,989,776,4210,-1172,-1361,-39,-54,332,-2083,-2319,533,-1546,-703,-2456,103
-335,923,850,6299,-818,-1391,-697,-369,569,-2177,-2275,399,-1593,-784,-2341,188
-401,997,533,6576,-1106,-1276,-1131,-1225,1853,-2121,-2321,275,-1827,-680,-2407,171
-401,869,99,5728,-807,-1155,-1097,-1365,-33,-2034,-2294,190,-1680,-486,-2419,190
-395,524,-379,4078,-428,-873,580,-1304,-362,-2134,-2128,150,-1321,-531,-2341,184
-416,-58,-871,2451,109,-769,2021,-1614,-86,-2128,-2183,-49,-1308,-514,-2411,137
-673,-358,-1755,582,-301,-1214,2703,-1691,6,-2645,-2647,-531,-1940,-890,-2696,-322
-542,614,-1318,-1140,-279,-1020,1153,-1135,1885,-2179,-2304,-247,-1120,-633,-2341,128
-356,893,-737,-2577,-556,-1135,-822,-1020,710,-2098,-2338,-416,-288,-588,-2487,-77
-390,682,-771,-518,-494,-1103,-1817,-1054,-1596,-2183,-2368,-386,-524,-603,-2777,-132
-372,-32,-1135,4815,-560,-1065,-586,-1485,-1281,-2147,-2609,-467,-1057,-582,-2883,-69
-318,5,-1063,8343,-639,-967,-1125,-1299,107,-1923,-2590,-365,-812,-537,-2832,11
-389,-154,-1242,8188,-612,-1091,-7691,-262,-525,-2021,-2504,-490,-1012,-648,-2724,37
-535,-145,-624,6410,-414,-1065,-4802,595,-1041,-2057,-2566,-473,-931,-607,-2681,165
-647,79,290,3535,-175,-922,5190,1016,-874,-2047,-2553,-337,-988,-614,-2556,139
-579,505,644,1710,-311,-971,9685,418,-683,-1955,-2513,-356,-1080,-703,-2481,194
-805,412,252,1170,-931,-1544,6267,-937,-1006,-2479,-2862,-818,-1455,-1084,-2800,-296
-677,199,275,1346,-748,-1221,1551,-948,-896,-2145,-2349,-365,-1025,-737,-2385,131
-595,-586,-341,1223,-663,-1069,4253,-2006,-521,-2034,-2345,-307,-1027,-729,-2517,135
-435,-1221,-1012,1515,-639,-1057,6389,-1774,-1196,-2036,-2311,-211,-999,-784,-2553,82
-205,-1342,-1470,1966,-486,-1169,3640,-333,-663,-1955,-2330,-273,-1089,-739,-2553,39
-147,-588,-2383,2454,-516,-1071,1902,392,334,-1891,-2243,-192,-1010,-697,-2639,131
-65,-452,-1602,2984,-650,-1022,2726,309,-501,-1993,-2181,-218,-995,-633,-2619,271
-4,-433,-1014,2643,-624,-1065,2345,-73,-694,-2055,-2142,-288,-1067,-684,-2545,211
-88,13,-1299,2541,-629,-1131,2837,-511,403,-1913,-2181,-273,-1042,-712,-2524,231
-250,-71,-1191,2503,-575,-1116,3056,39,1095,-1904,-2264,-177,-1010,-526,-2564,118
-483,-646,-1440,2023,-1054,-1487,2019,740,-1367,-2345,-2745,-590,-1582,-1142,-3024,-405
-329,-343,-639,2334,-795,-1295,2241,1372,19,-2008,-2400,-330,-1176,-867,-2685,-49
-370,43,-680,2622,-731,-1257,2469,1338,-394,-2004,-2247,-209,-1123,-690,-2553,109
-515,554,-652,2586,-592,-1197,2890,1061,-673,-2055,-2125,-262,-1099,-705,-2622,54
-545,774,82,2690,-450,-1167,3452,-403,-288,-2119,-2160,-367,-1169,-686,-2647,45
-551,840,921,2528,-501,-967,4792,-1208,370,-2174,-2564,-181,-1012,-673,-2575,103
-567,982,1059,2407,-467,-982,6195,-778,826,-2219,-2364,-318,-1129,-695,-2407,73
-489,908,899,2347,-601,-1044,2249,5,296,-2153,-2149,-237,-1176,-727,-2302,143
-335,435,1510,2503,-599,-1044,-6103,637,447,-2070,-2281,-201,-1150,-639,-2392,107
-282,-235,407,2764,-629,-995,-5113,712,269,-2215,-2194,-164,-1106,-635,-2249,229
-436,-974,-1380,2400,-1293,-1482,3767,633,315,-2634,-2677,-618,-1425,-1152,-2570,-184
-332,-503,-1559,2658,-1252,-1199,6663,1242,1108,-2157,-2317,-328,-1101,-733,-2064,20
-365,-175,-2189,2660,-1455,-1065,1836,1613,1565,-2187,-2221,-303,-1193,-731,-2017,-17
-246,-639,-2628,2726,-1384,-1089,-1529,1176,1734,-2132,-2217,-296,-1089,-675,-2191,26
-273,-1197,-2786,2481,-1123,-1114,2937,571,396,-2042,-2223,-260,-1108,-782,-2055,154
-335,-639,-2837,2611,-805,-965,2590,333,-3224,-1962,-2125,-211,-1157,-684,-1938,239
-361,-154,-2504,2724,-565,-856,50,-324,-6204,-2094,-2200,-192,-1248,-746,-2017,231
-353,77,-1970,3018,-522,-942,3480,-635,-3719,-2028,-2270,-120,-1233,-776,-2055,231
-385,288,-929,3088,-467,-1001,10641,-626,-2057,-1957,-2202,-94,-1044,-641,-2081,197
-415,701,-316,3009,-535,-1208,12052,-382,-1242,-2045,-2451,-124,-786,-692,-1974,175
-674,493,-633,2596,-933,-1427,5777,-337,296,-2368,-2809,-633,-1470,-1063,-2475,-309
-598,842,-196,2928,-524,-1093,3227,-9,4184,-1985,-2317,-226,-1191,-720,-2255,71
-571,916,173,3048,-450,-980,3488,16,2976,-1976,-2338,-192,-1180,-654,-2183,122
-560,984,612,3054,-469,-948,2914,433,-248,-1983,-2345,-262,-1101,-582,-2128,92
-662,546,471,2950,-469,-1003,2232,424,-1191,-1993,-2336,-218,-1005,-692,-1991,116
-573,-145,5,2939,-686,-1048,1830,5,-586,-2100,-2353,-256,-1093,-750,-1966,167
-620,-556,-567,2897,-484,-1123,1836,-394,-331,-1974,-2434,-271,-1125,-658,-1864,141
-634,-563,-541,2988,-584,-1167,1687,-942,-5,-2021,-2696,-190,-1316,-652,-1889,126
-524,-567,-618,2973,-854,-1108,1847,-1025,-61,-1913,-2536,-192,-1559,-739,-2025,109
-474,-120,-552,2830,-833,-1037,2019,-867,113,-1957,-2504,-158,-1186,-665,-1876,163
-601,-43,-420,2630,-1063,-1523,1463,-1955,129,-2311,-2926,-588,-1642,-1140,-2358,-371
-374,233,188,3065,-584,-1146,1787,-2083,361,-2076,-2223,-318,-1201,-778,-1917,-7
-278,307,-22,3071,-524,-1157,1736,-950,620,-1936,-2070,-267,-1076,-722,-1878,114
-253,401,-803,3022,-622,-1199,1719,-132,556,-1936,-2270,-237,-1118,-805,-1893,126
-255,263,-1370,3007,-643,-1084,1921,452,-383,-2010,-2338,-198,-1131,-737,-1821,135
-378,114,-1555,3052,-624,-1046,2026,840,-1053,-1944,-2243,-132,-1069,-716,-1761,135
-418,263,-1851,3077,-560,-1061,2013,829,-622,-2006,-2243,-252,-1046,-716,-1798,77
-457,390,-1793,2892,-633,-1184,2239,586,561,-1842,-2264,-239,-1014,-735,-1870,128
-554,501,-867,2845,-601,-1057,2260,254,713,-1819,-2257,-260,-969,-709,-1768,71
-497,499,-558,2931,-686,-1067,2224,246,-241,-1817,-2251,-209,-976,-663,-1812,186
-647,18,-724,2586,-1223,-1478,1483,30,1644,-2204,-2634,-616,-1431,-1095,-2292,-290
-497,326,135,2918,-752,-1010,1668,486,2608,-1927,-2366,-258,-1020,-705,-1921,54
-494,190,-35,2845,-816,-1195,1834,691,1544,-1953,-2355,-186,-1018,-773,-1938,22
-436,-192,-115,2965,-643,-1108,2196,495,464,-1887,-2272,-333,-1069,-746,-1889,190
-445,-47,-30,2835,-669,-1142,2194,201,-1285,-1821,-2047,-179,-1003,-754,-1753,175
-413,154,341,2809,-614,-1086,2087,258,-2448,-1783,-1976,-284,-967,-801,-1785,235
-459,691,767,2854,-727,-1135,2200,-15,-2692,-1693,-2085,-171,-954,-686,-1889,243
-399,1310,1050,2828,-797,-1144,2302,-599,-2439,-1738,-2140,-267,-1016,-786,-1923,131
-334,1212,590,2681,-810,-1146,2305,-526,-1698,-1812,-2473,-243,-1033,-720,-1962,194
-349,893,33,2733,-769,-1044,2247,-414,-1395,-1810,-2843,-160,-991,-703,-1866,299
-508,512,-856,2349,-1144,-1621,2004,-869,-1122,-2419,-3179,-650,-1387,-1176,-2304,-213
-335,307,-1272,2667,-776,-1255,2405,-443,-268,-2083,-2930,-262,-1137,-824,-1949,126
-384,-982,-1444,2760,-707,-1244,2339,-154,536,-2228,-2581,-260,-1099,-724,-1930,97
-383,-1757,-1597,2822,-639,-1172,2409,205,742,-1964,-2247,-145,-1052,-701,-1866,150
-228,-1506,-1885,2867,-635,-1159,2451,516,-2,-1991,-2283,-107,-1084,-741,-1962,177
-269,-473,-1868,2745,-433,-1095,2513,542,-332,-1915,-2468,-73,-978,-624,-1921,171
-348,135,-1902,2754,-375,-1240,2490,309,-573,-1981,-2315,-39,-954,-612,-1834,241
-342,365,-1804,2935,-533,-1091,2552,171,-862,-1962,-2306,-79,-1014,-646,-1844,190
-282,94,-1708,2792,-614,-1112,2481,-60,-1076,-1976,-2217,-73,-1065,-709,-1844,131
-277,-848,-1610,2790,-633,-1208,2513,-286,-1085,-1987,-2236,-58,-1016,-737,-1855,118
-478,-807,-1593,2398,-1012,-1553,2164,-895,-523,-2323,-2728,-507,-1476,-1125,-2281,-322
-248,-73,-1057,2630,-790,-1135,2592,-382,420,-2002,-2240,-173,-1206,-782,-1829,-47
-362,-132,-567,2707,-744,-1116,2718,26,1182,-2015,-2400,-196,-1129,-816,-2079,45
-509,190,-275,2739,-712,-1089,2750,-22,856,-1927,-2607,-205,-1065,-833,-1985,69
-522,343,22,2788,-571,-1008,2747,124,229,-1910,-2692,-175,-1146,-861,-2166,145
-523,450,295,2771,-609,-993,2545,92,97,-1874,-2315,-213,-1097,-748,-2049,109
-483,608,608,2764,-567,-999,2560,-597,114,-1885,-2232,-218,-1061,-765,-2038,62
-407,1095,629,2801,-592,-1040,2677,-1959,877,-1976,-2326,-77,-1001,-614,-1915,-15
-215,993,-273,2931,-605,-1114,2796,-1455,1785,-1913,-2343,-11,-1086,-727,-1776,20
-165,-656,-1387,2865,-580,-1127,2839,-388,2327,-1972,-2292,-37,-961,-692,-1746,211
-361,-1829,-1757,2464,-976,-1468,2398,-469,329,-2311,-2705,-546,-1468,-1206,-2306,-305
-221,-709,-1014,2705,-612,-1108,2635,-603,933,-1959,-2436,-120,-1027,-741,-1885,52
-203,-256,-1431,2835,-592,-1037,2690,-471,1410,-2030,-2438,3,-1052,-773,-1751,65
-224,-235,-1606,2839,-684,-1048,2698,463,722,-1921,-2436,-64,-1116,-737,-1910,73
-276,163,-888,2711,-624,-1089,2337,1138,-888,-1868,-2298,-81,-1054,-739,-1908,148
-265,111,-313,2733,-609,-1093,1877,1868,-2715,-1972,-2323,-47,-1063,-769,-1789,322
-286,69,1,2733,-616,-1112,1994,2266,-2292,-2002,-2504,-43,-978,-727,-1761,252
-375,337,-81,2782,-524,-1106,2479,1813,-1881,-1934,-2347,39,-1027,-790,-1893,152
-455,510,-348,2777,-692,-1078,2547,991,-1217,-1868,-1955,45,-993,-722,-1910,173
-429,552,-181,2816,-680,-1095,3129,375,-499,-1783,-2147,39,-1035,-724,-1921,137
-662,103,-501,2403,-1118,-1470,2713,-262,-711,-2283,-2724,-458,-1478,-1137,-2253,-433
-477,416,-301,2601,-786,-1180,2575,-126,-204,-1940,-2481,-158,-1084,-761,-1885,-35
-473,503,-198,2705,-771,-1103,2009,-220,168,-1942,-2200,-299,-1180,-803,-1776,84
-481,424,65,2760,-769,-1012,1785,-518,-24,-1981,-1996,-237,-1106,-654,-1668,216
-450,199,-66,2750,-748,-1042,2200,-582,-1559,-1853,-2123,-164,-1061,-678,-1506,124
-410,11,-179,2813,-665,-1048,2718,-111,-2013,-1815,-2253,-247,-1069,-637,-1546,135
-345,-126,-90,2824,-624,-1101,2575,41,296,-1802,-2215,-241,-986,-601,-1704,145
-429,-237,305,2890,-609,-1078,2696,-181,2825,-1785,-2377,-41,-937,-520,-1838,82
-458,-43,652,2841,-595,-1159,2756,-492,3122,-1689,-2464,-135,-1052,-709,-1981,54
-458,356,346,2873,-543,-1165,2524,-622,36,-1595,-2200,-71,-1103,-590,-1944,62
-630,197,-1035,2434,-935,-1595,2026,-948,-1215,-2113,-2843,-541,-1495,-1033,-2421,-262
-501,678,207,2741,-571,-1299,2569,-233,471,-1870,-2683,-209,-1097,-686,-1964,216
-511,782,725,2671,-556,-1212,2739,-241,-473,-1981,-2347,-109,-1089,-688,-2102,173
-499,597,-101,2684,-541,-1269,2662,-352,-1251,-2145,-2358,-62,-1084,-720,-2098,109
-401,154,-1037,2775,-571,-1272,2897,-543,-638,-2243,-2089,-58,-1093,-643,-1985,90
-427,118,-1576,2703,-480,-1140,3312,-362,-690,-2111,-2062,-60,-1086,-635,-2030,79
-366,378,-1908,2658,-584,-1201,3480,192,-743,-2070,-2245,-77,-944,-597,-2051,171
-348,520,-1214,2637,-703,-908,3838,699,-218,-2130,-2215,-233,-1061,-658,-1955,309
-405,69,-1474,2799,-754,-980,3559,559,187,-2047,-2228,-158,-988,-618,-1932,118
-431,-539,-1323,2656,-692,-1159,2094,-164,207,-1936,-2287,-118,-1029,-609,-2013,-3
-645,-1048,-991,2300,-1010,-1593,-271,-903,-84,-2236,-2845,-573,-1408,-1169,-2428,-416
-549,-756,-895,2690,-790,-1150,35,-550,-76,-1881,-2500,-239,-1035,-709,-2187,-58
-463,-818,-388,2690,-782,-1059,-179,-486,121,-1940,-2385,-354,-1080,-765,-2323,-28
-360,214,-184,2596,-720,-986,1174,-539,79,-1966,-2289,-277,-1031,-695,-2300,9
-368,1110,-235,2498,-763,-942,3024,-520,288,-1964,-1968,-203,-1101,-697,-2040,-24
-396,1404,-910,2573,-699,-956,4726,-292,783,-2038,-1985,-181,-1076,-709,-1993,177
-350,2153,-2294,2615,-692,-1118,5115,-245,213,-1991,-2081,-152,-1071,-709,-2096,216
-368,2222,-1521,2605,-686,-954,250,-448,-520,-1949,-2008,-273,-901,-588,-1974,378
-313,1025,-893,2624,-669,-1050,-3735,-207,-1045,-2085,-2528,-275,-982,-673,-1870,365
-62,-124,-1282,2615,-746,-1140,-1063,441,-1327,-1976,-2962,-145,-942,-701,-1981,229
-214,-292,-2062,2168,-1238,-1480,3244,284,-1037,-2364,-2898,-516,-1365,-1125,-2449,-143
-202,-247,-2057,2705,-844,-1197,9037,414,-835,-1906,-1976,-258,-1065,-871,-2138,107
-103,-754,-2170,2758,-573,-1135,9025,214,-2,-2057,-2251,-184,-1086,-850,-2151,26
-101,-497,-1964,2690,-643,-1191,4338,-345,1169,-2062,-2475,-205,-1140,-873,-1908,116
-262,-22,-1169,2760,-620,-1033,3642,-403,850,-1925,-2198,-218,-1097,-756,-1868,169
-320,542,-32,2764,-516,-1040,4149,175,307,-1957,-1844,-247,-1080,-780,-2079,186
-368,380,1059,2877,-488,-1020,3535,114,394,-1949,-2085,-292,-1148,-793,-2053,267
-458,233,1862,2977,-467,-1065,2788,275,132,-1827,-2336,-303,-1133,-756,-1915,184
-590,86,735,3003,-565,-1114,935,524,-163,-1925,-2434,-401,-1025,-788,-1974,239
-759,-149,-648,3084,-624,-1067,-1272,535,365,-1991,-2528,-426,-1020,-716,-2002,343
-991,-1054,-890,2635,-1080,-1553,-1042,-250,-73,-2394,-3437,-756,-1591,-1172,-2481,-196
-747,-931,2334,2911,-780,-1280,1581,-658,-853,-2145,-2683,-311,-1054,-680,-1917,7
-682,-890,4462,3073,-761,-1125,4168,-1116,-1396,-2140,-1776,-343,-1052,-697,-1896,18
-527,-1172,3897,3129,-680,-1033,4817,-812,-1640,-2102,-1991,-313,-1057,-654,-1898,111
-360,-533,2462,3188,-656,-993,2971,-439,-1064,-2104,-2666,-452,-1084,-656,-1968,92
-126,-665,567,3169,-665,-1014,2060,-149,-1153,-2040,-2822,-422,-1052,-648,-2047,69
-16,-352,-4721,3141,-648,-937,2618,-83,82,-1970,-2596,-379,-1057,-601,-2051,69
-44,-145,-8769,3229,-703,-863,216,399,1031,-2040,-2641,-428,-1078,-590,-2262,150
-221,-120,-8320,3133,-652,-946,-954,616,984,-2083,-2511,-362,-1008,-465,-2262,173
-312,107,-5083,3267,-661,-959,2258,286,1600,-2006,-2157,-360,-1016,-403,-2117,105
-500,118,-2685,2779,-1114,-1419,2941,-375,-422,-2428,-2622,-827,-1472,-856,-2404,-316
-319,729,-505,3077,-822,-1103,5079,-179,94,-2081,-2796,-635,-1061,-435,-2100,107
-242,-62,-1135,3086,-869,-1193,3684,-299,941,-1936,-3024,-552,-1069,-480,-2166,71
-270,-390,-1506,3077,-873,-1197,2813,-652,-492,-2040,-2611,-431,-1103,-471,-2155,52
-287,-1359,-1408,3171,-944,-1135,3889,-756,-1843,-2168,-2206,-382,-1114,-624,-2140,-39
-259,-699,-1227,3116,-882,-1059,3508,-737,-948,-2045,-2217,-431,-1061,-837,-2123,-5
-376,2147,-1783,3124,-722,-1069,3657,-356,253,-1927,-2113,-322,-1065,-590,-1985,62
-502,286,-488,3146,-714,-999,3571,-377,-285,-1964,-1887,-267,-1152,-550,-2015,7
-484,-352,940,3112,-671,-1080,2835,-552,-1435,-2049,-2487,-337,-1127,-746,-1970,-22
-540,86,1640,3148,-620,-1042,2183,-448,-2241,-1940,-2462,-254,-1095,-886,-1921,-52
-831,-162,1881,2679,-956,-1470,1300,-816,-1081,-2364,-2945,-705,-1465,-1789,-2404,-401
-749,437,2356,2907,-686,-1059,1385,-409,385,-2102,-2564,-330,-1074,-1101,-2245,-77
-671,712,957,2882,-620,-948,1583,-294,1484,-2010,-2206,-198,-1005,-620,-2260,22
-663,552,-407,2777,-586,-942,2051,-190,2295,-2059,-1947,-258,-1110,-490,-1932,218
-588,1016,60,2809,-633,-1014,1936,118,1183,-2040,-2166,-139,-1057,-299,-1763,190
-479,612,314,2713,-656,-1059,1906,305,-126,-2055,-2424,0,-1137,-473,-1878,224
-499,-929,-43,2735,-618,-1008,2309,343,-1073,-1985,-2709,5,-1103,-220,-1834,218
-563,-3889,-424,2767,-580,-956,2407,390,-1012,-1934,-2351,20,-1035,-239,-1898,220
-575,-7372,-803,2503,-511,-1135,1491,265,-960,-1898,-2177,137,-997,-401,-1861,229
-640,-4129,-1444,2290,-497,-1150,1357,35,-885,-1893,-2383,43,-1018,-548,-1927,105
-969,-1491,-880,1834,-922,-1529,1687,-407,-991,-2366,-2828,-424,-1548,-1240,-2509,-358
-690,-2924,648,2138,-780,-1152,2134,-113,82,-2008,-1821,-120,-1274,-1676,-2055,67
-515,-692,2496,2213,-690,-1184,2594,-130,476,-2053,-1144,7,-1208,-2464,-1913,165
-318,793,2743,2319,-648,-1078,3154,-305,-604,-2211,-750,165,-1120,-2200,-1802,122
-6,2187,-905,2294,-641,-1076,3354,-311,-663,-2140,-1742,126,-1054,-1700,-1770,171
187,-488,-2769,2437,-678,-1116,3256,-28,-939,-2166,-3382,194,-993,-701,-1878,182
410,-4253,-3277,2475,-541,-1016,3369,54,-1097,-2081,-2862,203,-935,-26,-2004,169
390,-5820,-4116,2415,-526,-1003,3124,-141,-653,-2045,-2100,167,-1008,11,-2228,190
177,2867,-3241,2586,-614,-1103,2577,-94,-128,-1979,-1857,224,-1001,-384,-2347,216
35,11991,-2013,2566,-586,-1193,2309,90,-170,-1972,-2543,184,-980,-897,-2206,243
-291,9968,-1419,2290,-1012,-1787,1610,-388,-1387,-2338,-2935,-252,-1459,-1614,-2519,-226
-277,9617,-643,2737,-744,-1574,1902,-32,-2145,-2004,-2100,97,-1018,-1589,-2206,105
-309,7149,-220,2694,-699,-1636,2515,45,-106,-1968,-2447,37,-1135,-939,-2040,141
-521,2613,-620,2647,-643,-1689,2713,392,-281,-2028,-2630,-73,-1108,-105,-2004,211
-626,1740,-358,2769,-709,-1591,2632,224,-385,-1998,-2445,67,-1012,333,-2030,184
-567,1078,627,2654,-548,-1376,2698,256,3417,-1985,-2979,37,-1033,301,-2034,188
-555,554,680,2626,-520,-997,2507,160,5081,-2040,-3077,65,-988,263,-1844,246
-606,552,573,2626,-622,-712,2224,28,3428,-2119,-2636,139,-1042,-9,-1957,158
-642,-1453,782,2767,-520,-494,2322,-186,967,-2068,-2517,-49,-1016,-194,-2170,175
-430,-6418,20,2711,-520,-452,2466,-192,-1109,-2117,-2317,-60,-1031,-262,-2174,192
-441,-6563,-927,2251,-1057,-1131,1934,-652,-1945,-2654,-2153,-584,-1382,-1519,-2734,-175
-332,5903,-213,2564,-688,-867,2147,-601,-897,-2300,-2057,-94,-1061,-1397,-2313,71
-225,6953,-324,2564,-692,-1212,2121,-631,-668,-2164,-2389,-230,-1152,-1186,-2245,73
-304,2503,-695,2577,-697,-1314,2228,-552,-1028,-2151,-1915,-301,-1018,-882,-2019,135
-240,1459,-686,2558,-692,-1182,2043,-109,156,-2102,-1812,-358,-1078,-897,-1840,156
-145,-4280,41,2528,-582,-1244,1860,297,1571,-2115,-2053,-414,-1133,-1206,-1791,99
-155,-3986,478,2603,-618,-1299,1953,246,389,-2070,-2675,-316,-1106,-1423,-1896,92
-202,-294,-388,2573,-584,-1421,2552,3,-2838,-1972,-2409,-286,-1074,-810,-2081,92
-358,-884,-1321,2507,-626,-1512,2782,-17,-4120,-1951,-1957,-311,-1050,205,-2187,97
-442,-3652,-2004,2528,-556,-1246,2894,-73,-2555,-1904,-2100,-233,-995,923,-2106,39
-663,-8279,-3311,2124,-1046,-1491,2528,-893,-772,-2292,-2081,-584,-1412,701,-2564,-462
-644,-9133,-1402,2451,-739,-1069,2513,-756,1536,-1802,-1636,-394,-1048,392,-2123,-90
-777,-2992,1106,2571,-503,-950,2115,-810,1422,-1887,-2998,-343,-1078,-661,-1944,-66
-848,-1450,1936,2532,-543,-918,2015,-541,1048,-1810,-3305,-271,-1084,-980,-1991,226
-699,1357,1502,2400,-592,-799,2098,-39,-440,-1732,-2413,-254,-1082,-1146,-1817,333
-596,1272,39,2400,-609,-684,2198,90,-1704,-1953,-2756,-277,-1093,-816,-1774,258
-450,929,-959,2479,-614,-622,2486,546,-383,-2017,-3384,-96,-1116,-690,-1574,273
-285,-3075,-1893,2466,-509,-680,2498,1031,667,-2130,-3101,-111,-1144,-635,-1531,194
-292,-8709,-1470,2492,-524,-871,2662,254,-802,-2202,-2528,-358,-1152,-465,-1476,248
-416,4723,-656,2483,-637,-1159,2767,-41,-2698,-2096,-2145,-328,-1157,-2053,-1693,324
-830,10430,-697,2002,-1067,-1668,3056,-405,-2900,-2366,-2468,-712,-1538,-3175,-2438,-201
-803,-5145,-152,2260,-703,-1585,3563,-192,708,-1968,-1885,-192,-1225,-1712,-2445,160
-712,-11714,-250,2392,-539,-1487,3207,-173,3217,-1972,-2283,-267,-1027,-335,-2432,105
-660,-12544,-601,2337,-520,-1225,2973,-92,3396,-2219,-2106,-320,-984,343,-2130,235
-504,-6003,41,2513,-520,-1316,2643,-13,2013,-2153,-1774,-305,-978,256,-2006,177
-304,15055,165,2656,-448,-1293,2632,-92,1485,-2142,-1923,-322,-974,11,-2170,152
-123,16747,-1414,2650,-458,-1242,2430,-103,-1233,-2177,-1981,-264,-993,-167,-2249,35
55,4819,-1966,2692,-494,-1280,2481,-181,-3932,-2108,-1949,-192,-980,-629,-2317,43
-12,13202,-2025,2667,-552,-1350,2654,-139,-3869,-2032,-2172,-158,-1118,-1216,-2292,30
6,4606,-1593,2701,-584,-1504,2613,-94,-3597,-1934,-1878,-284,-1020,-831,-2349,-13
-297,6834,-1193,2334,-1148,-1655,2279,-301,-2706,-2168,-2451,-776,-1357,-384,-2751,-330
-400,-1604,-878,2730,-733,-1308,2552,118,1581,-1768,-2377,-420,-986,1042,-2228,73
-530,-15519,-1274,2505,-758,-1323,2466,1,5914,-1798,-2123,-416,-999,1163,-2183,122
-542,-10089,-1240,2383,-650,-1397,2464,-190,1505,-1906,-2183,-405,-1116,1187,-2238,107
-480,1591,-776,2530,-550,-1419,2209,-132,-1848,-2000,-2741,-201,-1167,1027,-2283,190
-411,-235,105,2728,-518,-1427,2032,-113,528,-2059,-2720,-71,-1093,-109,-2317,126
-385,-22550,163,2894,-422,-1414,2207,-64,1234,-1885,-2602,-260,-954,-1695,-2313,39
-286,2643,-812,3105,-494,-1414,2424,-37,1302,-1759,-3350,-213,-925,-1708,-2345,133
31,21673,-2140,3467,-501,-1180,2583,39,1316,-1710,-3620,-233,-925,-190,-2487,88
53,14682,-2432,3706,-537,-805,2434,84,60,-1674,-3284,-226,-931,350,-2517,-56
-82,7078,-3867,3482,-944,-1080,1777,-460,-1053,-2113,-2877,-724,-1465,399,-2839,-503
66,3995,-3461,4010,-673,-863,2100,-205,-449,-1851,-2607,-111,-1027,471,-2392,-64
74,763,-1536,4195,-835,-956,2266,-122,540,-1623,-2277,188,-1131,30,-2266,28
-88,-1244,-1001,4349,-714,-837,2703,-15,925,-1546,-1419,148,-1176,-705,-2283,69
-205,1150,-58,4406,-722,-612,2897,37,556,-1610,-1057,165,-1061,-1020,-2343,33
-360,8154,1163,4447,-637,-618,2956,-26,-1748,-1655,-1421,111,-959,846,-2255,169
-605,12870,1078,4396,-584,-362,2830,-24,-2379,-1651,-2138,41,-865,2375,-2138,237
-930,12610,1432,4447,-571,-409,2639,-5,225,-1597,-2138,-113,-865,1828,-2128,120
-1100,4002,1125,4381,-439,-682,2503,-79,1021,-1663,-1838,-124,-1040,-267,-1936,131
-1147,-7679,776,4366,-588,-784,2396,-35,660,-1619,-1472,-301,-1389,-4250,-1878,150
-1309,-1597,137,4006,-993,-1184,1992,-431,-1713,-1966,-2021,-335,-2206,-10666,-2358,-339
-829,5079,-111,4065,-641,-886,2247,-86,-4288,-1531,-1461,90,-1710,-12625,-2021,71
-500,-16888,-1180,4027,-682,-846,2311,-158,-2647,-1474,-1659,-171,-1419,-8767,-2379,-118
-336,-27638,-1235,4006,-665,-899,2413,-235,-1642,-1453,-1774,79,-1172,-5262,-2551,-73
-115,-24417,263,4040,-669,-1042,2511,-149,-1485,-1497,-2343,-64,-1150,-2155,-2157,-88
-270,2469,701,4002,-631,-1321,2511,-115,1219,-1508,-2202,-243,-920,-529,-1817,-3
-396,2805,633,3904,-658,-1448,2586,73,307,-1623,-2409,-379,-718,-218,-2047,30
-270,-25254,18,3895,-580,-1857,2799,148,279,-1744,-2994,-358,-669,1819,-2287,0
-349,831,363,3859,-609,-1944,2958,60,338,-1923,-3052,-207,-799,3041,-2219,-15
-134,6525,-128,3776,-724,-1993,2539,13,-1237,-1902,-2964,-120,-739,3052,-2140,60
68,-228,-2558,3359,-1084,-2228,1900,-367,-2264,-2426,-3972,-573,-1329,1157,-2343,-390
45,-2232,-3214,3859,-890,-1216,2784,30,-1414,-1936,-2654,26,-1212,-758,-1917,152
-38,-6520,-2636,3818,-850,-494,3305,11,499,-1866,-2473,86,-1301,-2539,-1729,33
-364,11782,-2773,3699,-867,-467,3571,1,1691,-1844,-3245,22,-1078,-2702,-1203,-294
-657,10353,-1391,3659,-744,-648,3525,-58,521,-1979,-3275,-167,-1478,-4072,-1123,-484
-571,-4951,-1408,3576,-675,-867,2728,-47,951,-1642,-2362,165,-1631,-5822,-1116,-460
-497,-2485,-1674,3608,-686,-646,2004,-90,-444,-1480,-1670,303,-1408,-5300,-1167,-469
-274,10922,-1444,3701,-761,-654,1951,-137,-1011,-1651,-2358,194,-1037,-3216,-1282,-409
-46,9127,-643,3701,-916,-786,2055,-158,2241,-1653,-2873,-58,-733,-2162,-1448,-416
-226,4419,-356,3714,-884,-963,2204,-66,5187,-1891,-2504,-11,-850,-2573,-1753,-680
-828,4061,-1421,3237,-1329,-1827,1851,-497,1915,-2475,-2277,-439,-1333,-1465,-2688,-1740
-874,4436,-1265,3418,-1050,-1402,2062,-175,1373,-1859,-1514,-37,-997,35,-2309,-1316
-729,6395,1819,3408,-971,-1163,2187,-171,1391,-1604,-1504,-52,-1059,-886,-2119,-535
-551,18847,4068,3350,-842,-939,2200,-156,-1300,-1495,-2694,92,-997,-688,-2149,350
-220,17512,3137,3282,-848,-886,2275,-230,-473,-1485,-2287,190,-1042,203,-2181,1272
-69,1195,1862,3288,-793,-818,2339,-201,848,-1757,-2228,158,-971,427,-1853,2090
6,-1859,333,3186,-741,-1080,2315,-169,1886,-2854,-2362,116,-1061,1012,-1715,2417
-13,-1101,-1091,3152,-697,-1508,2381,-86,937,-3908,-1427,-17,-1067,1747,-1493,2377
-228,-8356,-1010,3169,-658,-1591,2475,-60,-461,-3861,-1621,-35,-982,1913,-1380,2236
-310,-11880,-218,3171,-661,-1431,2458,-83,-118,-1323,-4934,56,-856,3503,-1408,1945
-639,-17079,-1048,2635,-1050,-1193,2066,-524,-2411,-286,-4762,-416,-1284,5064,-1804,1168
-730,-27117,-1908,2741,-720,-541,2403,-252,-2146,-1059,-2172,-124,-931,6746,-1376,991
-828,-25756,-2969,2782,-665,-233,2598,-237,1765,-1412,-2688,-203,-1010,7112,-1238,744
-955,-14563,-2875,2647,-646,194,2613,-207,2835,-1772,-1252,-252,-910,8618,-1521,676
-1116,-5975,-1206,2630,-592,-345,2609,-62,1175,-1785,-942,-60,-933,10986,-1523,608
-1209,9257,-394,2505,-571,-573,2664,1,-3063,-1749,-1033,-158,-771,9827,-1606,454
-905,361,158,2466,-629,-360,2641,-90,-7511,-1776,-2038,-145,-765,5709,-1672,335
-580,-29698,-105,2479,-673,-13,2524,-213,-8626,-1930,-2496,118,-1005,490,-1625,82
-357,11441,-235,2439,-582,-154,2598,-135,-4824,-2215,-2451,135,-1057,-4862,-1565,-188
-226,32767,326,2239,-492,-810,2675,-98,509,-2481,-2443,-66,-1074,-11650,-1612,-252
-463,18530,50,1713,-912,-1502,2170,-460,3309,-3326,-2845,-635,-1416,-15861,-2430,-612
-241,17759,137,2100,-650,-1080,2537,-216,-1098,-3267,-2677,-322,-1140,-14243,-2085,-233
-50,27686,-1221,2456,-577,-944,2547,-164,-1906,-3331,-3054,-445,-974,-11271,-1531,-156
64,21515,-3725,2447,-552,-908,2498,-58,-2196,-3211,-2662,-352,-956,-6842,-1078,-250
282,13543,-4521,2447,-548,-1071,2522,-173,243,-2873,-2211,-458,-944,-5370,-678,-443
375,5298,-2504,2520,-631,-1161,2554,-207,3165,-2709,-2477,-392,-829,-3358,-243,-654
123,3222,-1993,2530,-567,-1312,2573,-124,1646,-2651,-2498,-188,-927,-2349,50,-1003
-154,3823,-967,2347,-511,-1350,2658,-75,842,-2553,-2321,54,-1029,-1689,-230,-1644
-441,1783,1691,2396,-776,-1529,2603,-11,1217,-2381,-2100,9,-995,444,-897,-4461
-593,133,4811,2428,-795,-1991,2611,35,-976,-2279,-2266,71,-833,3071,-1736,-9840
-711,-1785,6291,1866,-1176,-2871,2226,-373,2563,-2758,-2573,-492,-1195,3953,-2881,-13794
-546,-3314,6706,2151,-1005,-2960,2475,22,3596,-2128,-2353,-237,-886,3457,-2494,-12378
-683,-4536,3912,2243,-929,-2911,2462,-109,453,-2074,-2296,-254,-801,2364,-2370,-9195
-762,-5724,-2253,2273,-956,-2700,2371,-79,3889,-2181,-1981,-341,-856,1960,-2886,-5256
-637,-6895,-9371,2270,-920,-2362,2464,33,3885,-2100,-1983,-392,-882,1815,-3118,58
-654,-10587,-15472,2234,-1018,-2251,2511,116,650,-2045,-1861,-303,-842,644,-2888,5516
-703,-23301,-11765,2311,-1052,-1653,2507,118,794,-1932,-1657,-399,-720,-171,-2511,10434
-649,-24430,-4172,2187,-1016,-709,2520,205,2371,-1776,-1772,-256,-810,806,-1815,13443
-620,4521,2411,2251,-844,99,2469,103,2590,-1578,-2168,-396,-861,1572,-1414,13694
-357,4868,8750,2441,-727,488,2447,20,527,-1538,-2647,-494,-937,1304,-1029,11631
-92,-15265,11669,2068,-1142,-486,2100,-222,-3157,-2087,-2883,-920,-1636,35,-1406,8654
689,-32767,14725,2430,-863,116,2449,-26,-8460,-1683,-1878,-577,-1348,-680,-1384,6386
664,-32767,10958,2496,-839,284,2549,-39,-6402,-1568,-1708,-741,-1250,-1697,-1785,3652
50,14688,2854,2635,-818,-252,2594,107,-1313,-1600,-2166,-848,-1042,1119,-1048,1928
180,32767,-9420,2728,-724,-884,2671,88,1484,-1636,-2257,-882,-914,4860,2579,1197
12,11109,-20942,2845,-571,-1742,2690,-13,1188,-1742,-2328,-822,-1037,5298,4787,691
-224,15332,-20548,3022,-497,-2372,2607,-32,-1213,-1834,-2479,-684,-1093,4427,2690,708
-354,14861,-9985,2920,-424,-2941,2607,0,478,-1680,-2492,-522,-1103,2767,43,9
-374,10389,2385,3082,-235,-2709,2662,26,-977,-1559,-2588,-411,-1165,812,-2108,-279
-391,6093,6733,3103,-256,-1499,2613,-20,-2797,-1625,-2562,-264,-1203,2313,-4048,1142
-806,5567,3029,2713,-744,-805,2113,-384,367,-2194,-3024,-648,-1913,1796,-5558,2102
-869,4470,1468,2933,-426,101,2411,-205,1322,-1874,-2409,-96,-1898,-5835,-4691,3244
-1001,3623,6499,2833,-492,220,2447,-316,-2374,-2021,-2145,-64,-1836,-15084,-3750,3335
-786,2526,6529,2792,-509,-26,2539,-309,-2447,-1989,-2389,-369,-1299,-16315,-3326,2752
-659,1463,820,2867,-484,-226,2603,-235,-1193,-1851,-2313,-622,-1095,-10525,-3989,1331
-737,684,-3407,2920,-399,-620,2537,-279,-2598,-1812,-2083,-601,-993,-6101,-4483,-465
-802,13,-5841,2826,-475,-577,2354,-237,-2234,-1774,-2136,-422,-1022,-6103,-4274,-1810
-1144,-584,-1878,2879,-475,-954,2362,-156,4673,-1979,-1936,-282,-1097,-4353,-4001,-2588
-1435,-797,-2758,2764,-482,-1363,2409,-175,2950,-1887,-1732,-228,-956,-1001,-5158,-3096
-1209,-1146,-10208,2726,-567,-1489,2537,-294,-5315,-1972,-2047,-156,-912,801,-5509,-3429
-866,-2368,-7917,2332,-1089,-1893,2021,-1042,-4963,-2451,-2492,-501,-1384,254,-2709,-3948
-117,-2800,9003,2547,-739,-1244,2264,-801,-4465,-1742,-2168,-39,-1131,-220,-684,-3050
-396,-4133,16232,2415,-629,-1276,2334,-531,2529,-1353,-2270,33,-1127,-1310,-1717,-3058
-872,-4046,14731,2428,-682,-1459,2392,-60,5447,-1306,-2266,7,-1078,-1729,-2969,-3631
-280,-1783,9444,2492,-707,-1753,2456,216,7741,-1610,-2530,-43,-1159,-2202,-4029,-3742
-71,-2174,-6141,2432,-739,-2317,2507,316,4760,-1891,-2551,26,-1216,-1544,-4242,-3418
-581,-1836,-13668,2481,-758,-2234,2526,312,405,-1987,-2664,13,-1272,-1672,-4227,-3282
-650,-942,-12993,2579,-622,-1930,2539,786,-2541,-1887,-2651,11,-1199,-827,-4894,-2822
-20,-633,-14275,2462,-546,-1206,2441,780,548,-1717,-2556,3,-1223,2581,-4615,-1261
357,-167,-9171,2549,-765,-288,2326,229,553,-1614,-2415,-39,-1106,5360,-4346,-328
115,-1444,-8036,2268,-1212,-198,1877,-490,-749,-2053,-2988,-401,-1568,5630,-4770,-1580
-16,-2837,-4010,2684,-773,-60,2407,-137,1734,-1851,-2860,105,-1229,5711,-3514,-2385
112,-3071,-299,2690,-722,-601,2473,-130,-873,-1806,-2685,109,-1155,4591,-1450,-2028
488,-2296,-3418,2628,-824,-1010,2469,-145,-1579,-1685,-2541,-24,-1180,2324,1212,-1421
347,-1597,-4493,2669,-652,-1172,2488,-137,-1643,-1649,-2630,13,-1197,648,463,-3458
50,-303,-3375,2650,-624,-1248,2530,-271,-155,-1717,-2551,22,-1116,-1037,-1020,-6784
-143,-17,-1448,2716,-646,-1248,2579,-296,793,-1661,-2519,11,-1071,-2869,-533,-5984
-191,791,8149,2813,-577,-1340,2671,-424,-5170,-1710,-2826,9,-1116,-4003,-1321,-3567
-363,2066,13547,2833,-614,-1116,2613,-450,-4048,-1761,-2788,-75,-1050,-3697,-1165,-1235
-768,1630,10883,2694,-761,-1069,2588,-358,1321,-2034,-2494,-154,-1012,-2773,-1193,1813
-1179,320,4606,2334,-1029,-1576,2098,-741,1626,-2483,-2396,-709,-1489,-1089,-1998,4496
-1119,433,-2711,2762,-631,-1231,2507,-267,-264,-2194,-2255,-316,-1016,1696,-2871,7796
-1034,712,-8358,2867,-688,-1265,2407,-243,-476,-2306,-2490,-324,-963,1463,-3999,9350
-565,933,-11986,2822,-618,-1397,2411,-118,1087,-2311,-2432,-224,-1037,1847,-5177,9425
213,1114,-9823,2811,-633,-1461,2481,107,1690,-2379,-2389,-196,-1052,2290,-5828,8831
64,944,2268,3046,-744,-1146,2496,24,1989,-2430,-2172,-162,-1027,2581,-5430,8022
-550,921,11788,2971,-831,-974,2564,-311,2027,-2385,-2132,-132,-910,3246,-5688,6900
-768,1046,12521,2843,-805,-739,2605,-384,-1219,-2494,-2070,-15,-1052,3576,-5017,5669
-1134,1102,4779,2905,-803,-556,2692,-130,-4947,-2530,-1942,128,-1146,2841,-4265,4195
-1203,1191,-3256,2888,-786,-490,2620,190,-5382,-2417,-1959,188,-1133,-1059,-4223,2877
-1237,1046,-264,2522,-1167,-980,2194,-158,-5109,-2692,-2611,-465,-1478,-5226,-4519,1270
-617,1240,4819,2786,-884,-1080,2609,-167,-2602,-2170,-2336,-188,-1084,-6199,-3173,497
-707,863,7061,2988,-790,-1178,2466,-629,-1034,-2091,-2345,-130,-1103,-5541,-995,-575
-1307,618,9721,2931,-818,-1182,2290,-897,5624,-2074,-2462,-60,-939,-3650,1040,-2025
-1049,989,876,2990,-844,-1238,2330,-650,6762,-2087,-2245,-111,-963,-1776,2179,-3676
-433,661,-14433,2956,-942,-1144,2507,-233,3254,-2270,-2049,-143,-1014,-497,3459,-4014
-253,-158,-20180,3007,-829,-1203,2532,65,3867,-2436,-2183,-273,-1040,-173,-30,-4014
15,-439,-6246,3029,-648,-1191,2483,297,5069,-2328,-2651,-309,-1027,-1512,-3595,-4583
66,363,5456,2958,-678,-1142,2579,791,2622,-2330,-2741,-245,-1099,-2209,-4138,-4400
-65,203,2179,3114,-631,-1097,2554,1048,-74,-2096,-2577,-235,-1078,-1425,-3535,-3646
-158,-13,56,2609,-942,-1344,2190,122,-2026,-2260,-2967,-784,-1506,-1304,-3358,-3857
194,1087,-2513,3024,-727,-1057,2366,111,-2704,-1821,-2475,-609,-1054,-345,-2500,-3412
69,901,-7911,3033,-612,-1103,2494,-13,-1338,-1838,-2347,-635,-1152,744,-2832,-3944
-386,737,-10672,2963,-669,-1167,2460,-320,-1269,-1861,-2157,-603,-933,2788,-2651,-3897
-242,346,-1940,3018,-720,-1022,2481,-441,-3414,-1776,-2200,-712,-952,3812,-1631,-3243
-274,-697,582,2916,-656,-1133,2358,-439,-5688,-1763,-2104,-724,-842,4410,-1331,-2296
-169,-654,1468,2939,-622,-1165,2492,-341,-5530,-1821,-2140,-612,-852,5467,-1851,-980
8,9,3190,2975,-537,-1033,2441,-390,-507,-1736,-2125,-622,-991,6103,-2617,497
-144,260,4709,2899,-558,-950,2456,-237,-324,-1776,-2010,-465,-854,5809,-1849,1608
-394,286,5239,2990,-571,-933,2675,-149,-2468,-1804,-2119,-494,-1108,2594,-396,2288
-556,137,2758,2543,-1008,-1565,2228,-218,1493,-2268,-2837,-773,-1710,-5907,-897,1625
-313,576,3759,2720,-758,-1591,2624,395,5278,-1825,-2585,-86,-1429,-12682,-1259,1165
-352,635,901,2879,-795,-1683,2569,160,3082,-1991,-2598,90,-1419,-12765,-1329,522
-251,780,-2573,2856,-788,-1602,2575,-5,1677,-2134,-2504,18,-1125,-11054,-1955,-20
-220,667,-2766,2860,-833,-1529,2579,226,1294,-2283,-2522,-205,-997,-7934,-2125,-1005
-278,674,-2108,2854,-805,-1246,2660,246,1759,-2385,-2483,-194,-816,-4589,-2385,-2383
-257,627,-2575,2884,-812,-1031,2598,-66,2485,-2292,-2319,-164,-812,-1063,-2347,-3910
-326,397,-2496,2922,-820,-910,2375,-209,-458,-2338,-2353,-137,-818,980,-514,-4116
-520,177,86,2928,-722,-612,2405,-149,-1155,-2375,-2294,16,-816,659,495,-2709
-505,111,1261,2899,-712,-814,2437,-152,1223,-2375,-2251,-30,-854,-1265,1340,-537
-792,-318,-115,2411,-1067,-1587,1972,-592,-240,-2862,-2666,-403,-1301,-3716,118,1451
-604,-26,-179,2705,-731,-1344,2400,-292,-528,-2419,-2253,-77,-814,-4153,-3861,4038
-489,177,92,2758,-805,-1393,2515,-186,-630,-2334,-2128,-169,-886,-3254,-4678,6067
-482,431,224,2784,-692,-1269,2571,22,116,-2300,-2042,-118,-863,-1725,-5198,7230
-598,405,354,2841,-684,-1193,2620,45,-114,-2213,-2062,-73,-878,952,-6610,7010
-501,559,823,2903,-661,-1301,2586,-54,-78,-2111,-2064,-49,-793,2907,-6269,5777
-388,444,1446,2805,-650,-1359,2535,-228,-134,-2151,-2189,-20,-739,3329,-4849,3887
-344,277,1395,2739,-601,-1267,2579,-247,-614,-2157,-2321,-24,-833,2877,-2115,1317
-295,188,-124,2809,-626,-1284,2507,-218,-900,-2089,-2136,-94,-773,1862,-516,-1250
-269,165,-2262,2733,-688,-1229,2351,-186,-1358,-2008,-2047,-79,-852,-154,414,-1889
-574,-262,-1346,2328,-1127,-1436,1936,-588,-1906,-2436,-2590,-475,-1274,-1412,1308,-2411
-375,-126,375,2677,-784,-867,2375,-147,-1964,-1955,-2264,-154,-878,-1267,2547,-2313
-288,-52,280,2688,-856,-716,2411,-192,-1054,-2068,-2253,-120,-1033,-1536,912,-1989
-379,-271,224,2822,-780,-729,2407,-171,-48,-2040,-2128,-235,-1029,-933,126,-1519
-369,-301,-326,2835,-699,-844,2522,-194,-441,-1932,-2277,-228,-961,-169,554,-1086
-344,-392,-935,2703,-780,-1059,2509,-288,-657,-1925,-2289,-379,-974,1038,889,-665
-368,-228,-465,2615,-731,-1336,2486,-156,-830,-1934,-2319,-401,-946,1038,546,-703
-300,-205,-369,2698,-609,-1480,2581,24,-505,-1721,-2217,-333,-920,665,-1261,-582
-292,-416,-482,2669,-612,-1453,2681,-86,1291,-1614,-2185,-409,-967,429,-3101,-24
-335,-360,-205,2722,-622,-1336,2656,-201,2053,-1465,-2140,-390,-920,352,-2745,416
-528,-829,-139,2373,-1012,-1787,2288,-501,338,-1940,-2543,-761,-1406,-113,-2528,54
-337,-518,1153,2701,-618,-1376,2667,-145,584,-1485,-2479,-450,-1144,288,-3271,97
-458,-365,1621,2735,-586,-1342,2575,-73,1955,-1384,-2509,-433,-1127,550,-5045,-118
-463,-290,876,2684,-688,-1380,2439,-122,1326,-1342,-2624,-377,-1103,872,-4025,-328
-414,-294,-1008,2673,-648,-1310,2464,-132,-47,-1318,-2607,-350,-1037,548,-1101,-637
-408,-143,-3544,2777,-643,-1240,2460,-15,-2208,-1427,-2411,-375,-1020,812,-514,-1293
-414,-26,-3409,2822,-607,-1191,2564,-94,-3568,-1493,-2142,-475,-1144,1391,-1761,-1097
-435,-52,-2079,2969,-724,-1214,2571,-26,-5143,-1538,-2187,-296,-1172,1178,-2372,-531
-398,-71,-1968,3005,-665,-1112,2481,-28,-3057,-1621,-2541,-194,-1148,803,-2930,105
-360,-135,-2245,2973,-601,-1018,2498,62,-293,-1531,-2498,-145,-1172,539,-3343,576
-564,-362,-2358,2560,-1061,-1546,2270,-330,1296,-2030,-2932,-558,-1634,-784,-4361,169
-270,120,305,2854,-650,-1199,2530,-13,-842,-1642,-2734,-290,-1282,-1423,-3650,620
-258,73,229,3001,-658,-1086,2426,16,-716,-1612,-2636,-294,-1382,-905,-2394,194
-354,-47,-1538,2945,-748,-1025,2460,7,-268,-2332,-2760,-143,-1314,-1003,-352,-1052
-257,103,-1155,3003,-601,-1012,2443,-7,50,-3103,-2749,-37,-1199,-1118,1732,-1970
-195,286,-714,3143,-590,-895,2464,101,-309,-3047,-2502,-49,-1274,978,1781,-1318
-110,412,-435,3048,-605,-788,2556,45,-293,-1436,-2364,-92,-1250,3789,339,-490
-14,420,-330,3007,-631,-914,2566,88,903,-618,-2328,48,-1242,4481,-414,763
13,305,-520,3120,-599,-876,2558,180,1643,-1125,-2313,48,-1218,1540,-124,1621
-146,131,-490,3052,-590,-714,2488,131,275,-1399,-2234,-20,-1155,-2728,546,2132
-510,-343,-954,2660,-1025,-1365,2083,-339,538,-1827,-2656,-443,-1593,-5843,778,2330
-468,-39,-294,3080,-648,-937,2422,-26,1332,-1606,-2358,-35,-1216,-6427,1644,2858
-408,50,-550,3143,-569,-882,2426,-71,1049,-1776,-2298,-47,-1229,-6735,2445,2850
-407,84,-903,3095,-454,-933,2477,-128,121,-1925,-2157,-98,-1125,-6033,539,2796
-465,0,-1040,3043,-458,-935,2469,-45,-721,-1981,-2040,56,-1159,-4868,-2053,2613
-558,37,-729,3043,-486,-890,2390,62,-785,-2085,-1976,-45,-1071,-3365,-2788,2232
-566,109,-582,2994,-535,-865,2607,48,-624,-2072,-1947,7,-1131,-2302,-2519,1432
-414,205,-631,2914,-661,-954,2643,114,-1236,-2128,-1868,52,-1071,-1410,-2177,458
-441,141,-450,2992,-675,-1061,2590,37,-1201,-2008,-1979,1,-1044,-1174,-2070,-341
-516,152,-469,2871,-667,-954,2667,69,-1467,-1940,-1893,71,-954,550,-1427,-856
-614,-103,-771,2596,-1022,-1450,2177,-411,-903,-2343,-2434,-386,-1391,2441,-1651,-1361
-459,199,-311,2779,-784,-1125,2541,-26,3625,-2138,-2134,58,-980,3686,-1380,-1116
-323,82,-162,2698,-833,-1214,2579,16,176,-2407,-2226,65,-920,3284,-169,-1163
-349,-56,-539,2843,-699,-1261,2549,39,-4968,-2515,-2547,82,-986,3376,-58,-1069
-697,67,-827,2775,-622,-1248,2586,7,-4331,-2688,-2671,39,-1091,3065,-1214,-963
-833,158,-490,2796,-533,-1148,2511,92,-522,-2500,-2490,254,-1163,1116,-2430,-867
-1110,248,-612,2743,-588,-1089,2532,158,197,-2432,-2688,256,-1480,-3418,-3392,-746
-1548,322,-869,2701,-484,-1082,2583,92,1258,-2436,-2641,177,-1259,-9180,-3705,-658
-1622,397,-1593,2707,-339,-1097,2571,99,2533,-2370,-2441,-11,-1080,-12689,-4106,-616
-1340,510,-1233,2767,-514,-1157,2547,71,1849,-2300,-2449,37,-1016,-6737,-3286,-635
-1171,120,-1005,2330,-959,-1527,2249,-490,3745,-2788,-3150,-516,-1361,-3282,-1502,-922
-795,476,-903,2639,-511,-1265,2645,-164,2040,-2490,-2994,-230,-1042,-1989,582,-411
-474,512,-812,2647,-567,-1252,2618,-96,-315,-2487,-2886,-158,-1059,-103,467,-443
2584,535,-763,2650,-520,-1218,2673,-54,406,-2473,-2741,-128,-910,484,-2025,-330
4502,331,-729,2611,-537,-1229,2652,-69,112,-2428,-2545,-211,-959,473,-5251,-222
1596,177,-641,2571,-552,-1216,2643,-137,-67,-2383,-2453,-282,-978,171,-7312,3
108,148,-403,2609,-599,-1169,2735,22,-204,-2392,-2079,-260,-1014,-247,-8677,137
530,13,-311,2543,-665,-1225,2660,18,-847,-2236,-1853,-277,-903,-582,-8696,35
-164,-237,-275,2549,-688,-1231,2620,-88,-1721,-2138,-1904,-243,-910,-1014,-7457,-37
-1257,-81,-247,2532,-577,-1197,2601,-32,-622,-1923,-1870,-184,-920,-565,-3695,37
-2620,-307,-582,2090,-1059,-1638,1979,-473,-149,-2226,-2379,-588,-1387,-188,-2481,-290
-4872,224,-213,2469,-793,-1206,2456,-81,-606,-1930,-2094,-66,-1042,663,-3512,103
-5481,418,-228,2507,-678,-1186,2558,-37,-1176,-2138,-2181,-162,-933,744,-4312,9
-1302,435,-311,2624,-658,-1165,2498,-86,-2212,-2111,-2306,-286,-952,648,-4796,105
2452,452,-480,2590,-514,-1095,2443,-103,-3536,-2151,-2264,-256,-899,859,-4082,160
2735,416,-592,2560,-458,-1071,2424,-94,-2450,-2013,-2194,-275,-925,944,-3013,216
1861,363,-782,2684,-480,-1059,2432,-94,-1581,-1925,-2094,-271,-1020,1561,-2134,222
2081,182,-1299,2688,-420,-1078,2434,-7,-104,-1917,-2038,-264,-812,1755,-1595,320
-406,-66,-1580,2873,-452,-965,2594,-22,1778,-1887,-1991,-435,-971,1225,-1133,369
-969,-328,-1638,2807,-488,-954,2526,-15,195,-1817,-1930,-401,-948,654,-999,365
-1498,-903,-2196,2198,-1040,-1359,1989,-418,-81,-2415,-2368,-682,-1493,-484,-1238,-103
-827,-558,-2049,2654,-744,-1078,2290,-69,1439,-1944,-2079,-354,-1089,-443,-871,361
-216,-377,-2087,2669,-718,-1048,2447,-92,3818,-1742,-2059,-396,-1048,-641,-1029,339
-17,-260,-1572,2681,-595,-939,2462,-54,4110,-1825,-2017,-305,-1001,-661,-1216,288
-954,-158,-916,2777,-543,-937,2349,-7,1421,-1861,-2070,-358,-1018,-786,-1412,363
-1242,-9,-1069,2809,-535,-1008,2417,-39,-1927,-1738,-2138,-296,-931,-612,-1150,439
-1111,303,-1031,2777,-592,-929,2505,-90,-6315,-1572,-2134,-243,-914,-335,-1101,209
-830,395,-916,2856,-577,-893,2460,-118,-3614,-1329,-2089,-241,-997,-243,-1199,82
-935,478,-963,2907,-497,-912,2481,-124,1188,-1480,-2326,-201,-1120,-58,-1338,-32
-455,539,-807,2886,-488,-880,2364,-126,869,-1619,-2519,-194,-1031,194,-1280,-90
-593,-9,-1238,2556,-905,-1325,1964,-601,1389,-1983,-3018,-675,-1472,-141,-2470,-490
-1372,107,-592,2771,-680,-1012,2349,-226,-2039,-1734,-2854,-224,-1063,-107,-3103,118
-1428,128,-260,2809,-605,-1001,2405,-152,-715,-1927,-3160,-209,-978,-771,-3882,335
-1960,41,-460,2873,-590,-1084,2447,-186,2667,-1953,-3371,-335,-963,-1120,-3795,476
-1312,-154,-782,2879,-669,-1131,2443,-201,857,-2096,-3211,-309,-1148,-767,-2564,622
-565,-452,-1048,2914,-744,-999,2496,-86,244,-1932,-2849,-313,-1054,-646,-2079,697
-560,-149,-1229,2786,-699,-939,2517,-39,704,-1836,-2532,-335,-1091,-188,-2458,691
-495,-62,-1201,2877,-597,-965,2517,-164,245,-1815,-2498,-207,-1029,1502,-2098,603
1070,-41,-1165,2967,-620,-974,2541,-52,-164,-1778,-2426,-269,-1082,1655,-1259,465
1139,13,-1163,2924,-763,-993,2581,-60,-191,-1881,-2219,-230,-1054,586,380,316
-163,-305,-1678,2507,-1084,-1338,2102,-507,-255,-2100,-2654,-643,-1574,-1031,1708,-264
-229,-37,-1402,2920,-805,-1063,2371,-149,-152,-1617,-2313,-271,-1182,-1668,1894,201
-52,-7,-1331,2997,-769,-901,2385,-194,-245,-1621,-2160,-333,-1071,-2364,1551,275
881,67,-1272,3005,-652,-863,2288,-173,-506,-1770,-2006,-328,-1178,-2519,1902,190
1704,167,-1118,3126,-556,-950,2358,-160,-615,-1774,-2153,-201,-1131,-1687,1647,33
1943,182,-1174,3124,-543,-914,2456,-216,-455,-1642,-2223,-301,-1061,-1461,-1340,-73
723,145,-1174,3165,-631,-908,2439,-94,-460,-1829,-2202,-373,-1110,-2615,-2975,-52
-714,395,-1016,3131,-667,-910,2520,-128,-334,-1783,-2164,-271,-1052,-3077,-2973,-17
-1616,586,-1001,2973,-661,-986,2626,-186,-217,-1795,-2166,-181,-1052,-2187,-3571,-13
-1709,635,-986,2973,-541,-1048,2675,-156,-191,-1770,-2189,-94,-1050,-1378,-3582,67
-210,-162,-1423,2451,-952,-1557,2104,-673,-364,-2370,-2675,-511,-1625,-1582,-3601,-343
152,73,-793,2899,-701,-1203,2398,-322,-221,-1987,-2330,-143,-1078,-1721,-2696,45
-711,143,-763,2873,-565,-1235,2464,-173,-199,-1842,-2247,-216,-1010,-2047,-2694,73
-2623,35,-731,2948,-411,-1157,2628,-132,-203,-1834,-2185,-254,-1061,-1410,-2464,122
-2455,-201,-605,2862,-411,-1029,2541,-126,-524,-1857,-2211,-171,-1042,-982,-1485,103
-1532,211,-669,2960,-330,-1110,2556,-122,-856,-1861,-2153,-128,-993,-991,-820,165
-2919,458,-590,2911,-296,-1110,2505,-56,-835,-1913,-2125,-167,-988,-888,-1419,175
-3212,-790,-552,2773,-475,-1027,2496,-69,-1004,-1989,-2100,-196,-982,-735,-2279,286
-2076,-1048,-462,2775,-426,-1108,2451,60,-728,-2015,-2128,-186,-1008,-682,-3693,231
228,-718,-531,2879,-552,-1067,2607,-26,-218,-1925,-2279,-77,-1031,-807,-4302,107
694,-920,-1152,2400,-984,-1453,2202,-424,315,-2232,-2675,-552,-1546,-1397,-4666,-352
2139,-362,-756,2647,-801,-1225,2532,-26,877,-1908,-2294,-188,-1074,-873,-5015,103
2966,1272,-586,2656,-801,-1125,2513,-20,1444,-1795,-2328,-101,-1176,-718,-5724,120
259,3972,-729,2586,-771,-1206,2449,16,1306,-1887,-2396,-113,-1359,120,-5586,77
813,1962,-731,2581,-799,-1308,2413,-173,26,-1987,-2524,-120,-1110,1457,-4374,30
1763,444,-499,2439,-846,-1210,2349,-177,634,-2040,-2430,-177,-1089,1843,-3169,79
596,893,-367,2520,-739,-1191,2447,-94,618,-2145,-2513,-77,-1103,1647,-2656,48
570,652,-224,2667,-605,-1180,2426,-79,129,-2108,-2447,-162,-1005,529,-1849,-17
-741,614,-60,2650,-571,-1078,2458,11,-411,-2034,-2368,-120,-948,-784,-669,99
-2008,431,-186,2756,-618,-1076,2575,-41,-222,-1976,-2407,-218,-993,-1129,-765,90
-1725,50,-1393,2343,-1123,-1538,2107,-490,-385,-2496,-2830,-637,-1459,780,-1461,-305
-1288,139,-1585,2711,-652,-1261,2343,-96,-390,-2198,-2522,-324,-993,2790,-592,158
-1065,114,-999,2675,-763,-1299,2451,-86,-339,-2079,-2451,-348,-952,3056,-69,26
87,248,-520,2586,-786,-1203,2603,-143,-273,-2164,-2330,-218,-837,3537,90,105
1843,126,-445,2698,-805,-1212,2592,-52,-285,-2128,-2275,-448,-886,3742,-739,124
859,237,-362,2786,-820,-1137,2637,-120,-306,-2138,-2292,-384,-925,2117,-1521,5
-4,235,-260,2775,-831,-1184,2656,-88,-302,-2081,-2306,-273,-1150,-2611,-2332,-60
-488,92,-379,2786,-839,-1210,2743,3,-367,-2028,-2287,-296,-1344,-8941,-2762,-66
-595,22,-362,2794,-859,-1193,2605,-13,-344,-2145,-2191,-290,-1169,-10753,-3633,-115
-463,-5,-222,2905,-763,-1135,2445,-128,-314,-2070,-2194,-305,-952,-8247,-4721,-58
-708,-522,-484,2558,-1195,-1557,2138,-639,-512,-2528,-2760,-769,-1346,-6003,-5956,-541
-441,-431,263,2739,-718,-1163,2494,-233,-257,-2185,-2349,-416,-988,-3644,-5089,-56
-516,-401,282,2886,-573,-1148,2466,-286,-121,-2134,-2409,-271,-1008,-3252,-4361,211
-1176,-299,-531,2801,-592,-1142,2371,-207,-133,-2160,-2360,-171,-1065,-3105,-3742,348
-2207,-139,-888,2801,-597,-1093,2447,-158,-267,-2083,-2323,-122,-971,-2226,-2343,407
-1851,-158,-45,2790,-558,-1127,2420,-49,-231,-2045,-2260,-198,-920,982,-1742,542
-574,-3,271,2905,-607,-1016,2454,65,-164,-2013,-2275,-196,-861,3046,-520,531
-969,114,395,2875,-765,-1110,2537,16,-188,-1859,-2243,-43,-899,3633,1732,520
-1015,128,-120,2856,-648,-1065,2464,-20,-145,-1825,-2323,-41,-925,3393,3307,371
-331,265,-673,2922,-569,-1146,2530,24,-129,-1951,-2317,0,-908,2185,4017,203
99,-156,-1120,2362,-1065,-1631,2060,-443,-419,-2468,-2734,-388,-1314,397,2811,-348
423,39,-643,2247,-769,-1272,2475,-105,-231,-2049,-2338,109,-1074,-1478,1093,-30
-324,-5,-756,2258,-888,-1257,2560,-126,-198,-2106,-2351,77,-1129,-2935,-426,1
-549,-66,-812,2462,-831,-1233,2481,-24,-62,-2196,-2392,48,-1037,-3665,-2179,-77
-219,30,-469,2554,-776,-1216,2605,-49,-64,-2115,-2334,1,-1084,-1619,-2800,-15
83,-62,-543,2792,-810,-1169,2581,-62,-122,-2226,-2328,-64,-1071,-1195,-2458,120
97,41,-556,2858,-752,-997,2605,-152,-139,-2177,-2338,-120,-933,-543,-2160,105
-57,211,-675,3003,-758,-925,2611,-49,-186,-2157,-2255,7,-895,-32,-2104,54
-436,84,-465,3095,-793,-991,2690,-73,-118,-2125,-2247,41,-890,-507,-2066,120
-806,199,-328,3131,-780,-997,2745,90,-111,-2025,-2336,73,-897,229,-2200,145
-1254,-130,-716,2760,-1231,-1491,2290,-303,-334,-2243,-2779,-548,-1378,-141,-2739,-369
-1228,126,-296,3141,-910,-1112,2632,-79,-181,-1678,-2458,-145,-1001,184,-2530,73
-792,222,-7,3897,-852,-1097,2588,-169,-147,-1597,-2402,-24,-929,269,-2562,60
-335,207,-9,5251,-761,-1214,2509,-196,-139,-1499,-2304,-88,-946,20,-2570,-20
-246,280,-384,4325,-820,-1221,2413,-198,-183,-1512,-2355,0,-950,-20,-2715,103
-52,367,-437,4006,-727,-1133,2409,-233,-143,-1962,-2287,58,-963,107,-2564,86
389,410,-271,3827,-758,-1057,2445,-194,-175,-3077,-2289,-3,-956,203,-2536,86
688,265,-501,3770,-688,-1140,2490,-69,-191,-4108,-2260,-32,-952,331,-2428,122
-497,401,-473,3557,-567,-1229,2460,-118,-186,-3052,-2304,1,-893,101,-2385,182
-2132,369,-537,3442,-482,-1095,2515,-43,-183,-201,-2341,-11,-1016,-94,-2522,62
-539,-124,-1199,2926,-805,-1487,2107,-477,-363,-754,-2617,-414,-1384,-390,-3028,-365
1653,-7,-884,3095,-577,-1084,2315,-226,-199,-1499,-2317,-92,-1012,-247,-2389,77
657,24,-856,3043,-518,-1067,2437,-149,-200,-2170,-2341,-198,-1103,-431,-2426,13
589,94,-880,2933,-460,-1125,2500,-64,-112,-2334,-2255,-203,-1008,-925,-2683,-81
259,156,-856,2907,-550,-1146,2383,-49,-114,-2025,-2236,-156,-995,-988,-2641,3
-226,203,-986,2720,-580,-1244,2170,-9,-214,-1838,-2000,-149,-1044,-603,-2341,-188
-709,277,-803,2679,-537,-1197,2236,-24,-238,-1216,-1906,-141,-1040,-552,-2136,-243
-1493,209,-769,2628,-486,-1161,2396,-28,-214,-428,-2081,-154,-988,-601,-2102,-122
-1234,58,-818,2705,-567,-1106,2579,16,-92,-1131,-2247,-173,-918,-484,-2379,-124
-205,1,-784,2681,-471,-1048,2807,124,6,-2153,-2473,-90,-903,-684,-2835,-201
-688,-405,-1206,2256,-942,-1423,2294,-343,-354,-3128,-3156,-541,-1395,-1157,-3294,-456
-697,-169,-714,2426,-778,-1176,2588,-5,-202,-3927,-3071,-194,-1172,-837,-2547,167
-644,-132,-409,2535,-669,-1029,2662,105,-89,-4491,-2602,-201,-1157,-746,-2456,288
-792,-24,-414,2458,-807,-1069,2645,114,-120,-5820,-2311,-154,-1178,-854,-2532,418
-772,-132,-241,2296,-1078,-1140,2620,169,-49,-9069,-2115,-109,-1193,-965,-4263,573
-604,-143,-354,2381,-1165,-1310,2343,171,-5,-9210,-1953,-96,-1131,-829,-4908,650
-480,-83,-441,2385,-978,-1272,2232,284,-92,-3350,-2140,-167,-1089,-833,-3995,503
-348,-54,-477,2413,-1082,-1265,2281,241,-37,4359,-2426,-58,-1120,-812,-2428,173
-366,24,-639,2524,-1069,-1276,2158,116,-116,6667,-2556,-45,-1120,-758,-275,-7
-413,-49,-588,2558,-1031,-1182,2130,50,-148,3448,-2543,-54,-1118,-773,2121,158
-591,-262,-1057,2107,-1414,-1534,1791,-292,-415,1138,-2947,-588,-1578,-1246,2664,-309
-311,45,-678,2515,-1108,-1031,2249,-83,-251,-986,-2560,-328,-1133,-959,2807,-105
-135,73,-648,2679,-993,-1046,2281,-241,-268,-3571,-2560,-358,-1116,-950,3412,-24
-295,171,-626,2662,-908,-1093,2445,-245,-203,-5253,-2389,-132,-1140,-929,3207,265
-521,277,-631,2605,-1246,-1067,2545,-147,-222,-2477,-2304,-250,-1129,-882,-1086,461
-296,314,-612,2588,-1078,-933,2573,-147,-187,269,-2285,-294,-1221,-863,-3969,720
-89,346,-622,2735,-967,-1061,2652,-79,-179,-301,-2434,-201,-1148,-916,-6229,737
-95,454,-612,2669,-511,-1065,2771,84,-324,884,-2415,-130,-1189,-737,-5811,855
-204,507,-541,2890,-154,-969,2922,133,-369,-2117,-2153,-156,-1116,-641,-5117,829
-323,271,-601,2969,-83,-988,2822,145,-330,-6591,-2236,-181,-1186,-763,-3516,433
-521,-437,-971,2513,923,-1367,2388,-375,-493,-6876,-2883,-520,-1527,-1118,-635,-356
-461,-160,-686,2892,2722,-1123,2624,-109,-317,-326,-2856,-107,-1172,-778,4204,-201
-587,22,-699,2833,1087,-1031,2635,-41,-324,7911,-2498,-167,-1193,-729,4881,-213
-605,201,-705,2813,126,-1118,2547,-130,-158,2390,-2398,-198,-1193,-680,1851,-218
-291,343,-641,2914,-690,-1065,2586,-282,-80,-2756,-2226,-162,-1099,-761,-367,-81
-100,201,-716,2767,-1152,-1025,2779,-126,118,-580,-2334,-222,-1148,-669,-2681,-94
-390,54,-756,2686,-1293,-1133,2886,-71,161,603,-2462,-186,-1099,-707,-3716,-86
-617,118,-663,2709,-1538,-927,3031,7,-13,160,-2300,-154,-997,-722,-4127,-9
-629,424,-641,2828,-1902,-1046,3124,69,-117,1150,-2113,-171,-1035,-827,-5322,-20
-594,682,-667,2877,-1708,-942,3039,-26,-103,-1103,-1925,-124,-976,-699,-7261,-79
-826,473,-1110,2364,-1178,-1350,2571,-516,-426,-6226,-2253,-744,-1497,-1246,-9423,-573
-661,1010,-797,2677,-143,-905,2837,-118,-186,-13947,-1742,-350,-1131,-854,-7142,-175
-542,908,-735,2643,-569,-1012,2818,-126,-204,-21734,-1855,-213,-1099,-735,-4480,-60
-524,-933,-650,2673,-671,-1040,2686,-160,-84,-14699,-2111,-171,-1091,-379,-4027,26
-439,-2847,-678,2658,-737,-1093,2601,-96,-148,-5232,-2045,-203,-1099,-388,-3371,-15
-537,-1487,-643,2801,-837,-1089,2526,-81,-277,3525,-2117,-230,-1022,-420,-3190,7
-490,-192,-477,2724,-592,-1025,2528,-160,-265,9478,-2534,-226,-1010,-228,-2947,88
-431,-203,-424,2777,-367,-1174,2577,-17,-294,8275,-2639,-158,-1044,-43,-2898,111
-357,41,-541,2963,-531,-1152,2451,-75,-165,8942,-2675,-47,-1029,1327,-2632,286
-288,52,-629,2826,-445,-1093,2579,-145,-148,2992,-2700,-132,-956,669,-2181,284
-491,-431,-978,2373,-942,-1619,2109,-456,-457,1555,-3318,-673,-1455,-2142,-2385,-220
-362,69,-641,2805,-727,-1259,2388,-149,-148,895,-2396,-350,-1084,-2351,-2081,124
-291,131,-654,2733,-1003,-1203,2481,-56,35,467,-2102,-456,-1003,-2470,-1746,165
-319,39,-669,2824,-1016,-1052,2398,-109,-121,-480,-2347,-333,-1091,-1772,-1499,92
-277,60,-626,2920,-837,-1020,2194,-47,-148,-1395,-2213,-401,-1137,-1137,-1855,207
-270,-26,-648,2724,-805,-1059,2324,-58,18,-1695,-1823,-348,-1101,-756,-2249,235
-257,152,-756,2796,-603,-993,2364,-64,-53,-2830,-1913,-237,-918,-1052,-2245,167
-251,282,-782,2982,-531,-980,2392,67,-160,-5811,-1915,-365,-935,-1525,-2528,97
-207,520,-624,2905,-686,-997,2337,101,-209,-9857,-1976,-233,-910,-2145,-2219,211
-233,580,-652,2773,-831,-995,2309,-17,115,-10998,-2458,-190,-959,-2634,-1857,256
-511,69,-1099,2381,-1229,-1427,1717,-482,103,-7568,-3388,-605,-1472,-2990,-1774,-233
-315,350,-678,2679,-890,-1120,1996,-111,65,-8854,-3173,-269,-1067,-854,-827,150
-327,324,-697,2799,-812,-1080,1970,-137,-210,-11956,-2720,-226,-988,861,-697,131
-288,288,-778,2992,-658,-1065,2066,-128,-255,-10623,-2379,-164,-986,1421,-490,165
-351,378,-782,2828,-716,-1227,2109,-135,-73,-3605,-2675,-71,-1078,1374,-301,158
-329,363,-675,2924,-658,-1278,2077,-98,54,7836,-2828,-103,-1027,1423,-390,145
-335,299,-692,2960,-543,-1189,2222,-71,11,10415,-2447,-118,-925,1104,-560,99
-386,263,-641,2852,-722,-1048,2256,-43,-213,6680,-1751,-147,-993,62,-1108,-20
-362,158,-656,2994,-754,-971,2383,-13,-427,1538,-1702,-156,-1001,-965,-2059,-75
-348,67,-616,3024,-822,-1314,2462,50,-521,1968,-1812,-154,-956,-1938,-2317,24
-606,-328,-1014,2671,-1099,-1653,2109,-497,-840,1087,-2630,-511,-1450,-3940,-2504,-350
-477,-22,-756,2867,-695,-1101,2411,-60,-556,903,-2483,-213,-1082,-4227,-2441,163
-451,3,-656,2786,-935,-1040,2166,-75,-299,-567,-2470,-196,-1001,-3548,-2547,246
-399,39,-741,2843,-888,-827,2083,-137,48,-1054,-2464,-220,-1025,-3003,-1932,199
-341,33,-712,2935,-712,-754,2132,-113,91,-1527,-2698,-273,-995,-2347,-1221,382
-384,92,-618,2856,-569,-1035,2215,-90,-227,-2364,-2575,-252,-997,-1227,-952,435
-395,173,-665,2986,-590,-1150,2245,-184,-238,-2696,-1991,-177,-976,-697,-1282,531
-369,182,-552,3018,-563,-974,2343,-145,-137,-2864,-2155,-190,-1042,-586,-1938,422
-394,180,-499,3001,-599,-935,2454,-124,-178,-3113,-2355,-260,-1146,-186,-2094,399
-423,290,-531,2956,-573,-935,2635,-173,-134,-3275,-1883,-103,-873,1265,-1395,152
-627,-90,-1027,2477,-1050,-1427,2213,-573,-374,-3690,-2366,-575,-1453,1625,-867,-462
-468,186,-682,2801,-769,-1018,2492,-213,-201,-3431,-2113,-299,-1084,1123,-607,-147
-434,312,-584,2988,-709,-1054,2511,-177,-181,-3354,-2153,-175,-1001,-418,-895,-20
-455,303,-650,2897,-848,-999,2618,-139,-127,-3339,-2230,-179,-1040,-1263,-1629,-98
-510,190,-612,2784,-814,-856,2596,-26,-67,-3267,-2251,-115,-995,-1310,-1953,5
-498,62,-635,2875,-761,-914,2573,-122,-19,-4095,-2323,-54,-1095,-1046,-1487,58
-396,280,-684,2890,-714,-956,2601,-113,-43,-5070,-2421,-47,-1040,-950,-1257,135
-332,331,-539,2954,-588,-937,2539,-28,-155,-5690,-2404,-83,-1137,-942,-1210,169
-334,312,-595,2975,-648,-1327,2498,-115,-365,-6869,-2302,-171,-1033,-424,-1338,260
-280,231,-650,2890,-771,-1900,2507,-143,-354,-12357,-2098,-92,-1008,-81,-1157,243
-535,-256,-969,2526,-1065,-2464,2017,-535,-551,-15446,-2381,-537,-1476,-650,-1710,-171
-210,194,-612,2805,-622,-1593,2515,-115,-172,-6380,-2294,-245,-1108,-548,-1802,173
4,263,-675,3069,-541,-848,2564,135,228,6280,-2334,-216,-1197,-388,-2223,267
-158,18,-648,3024,-396,-537,2654,50,85,8886,-2358,-52,-1071,-24,-3252,141
-192,169,-573,3024,-514,-737,2752,65,-110,3020,-2545,-94,-1031,107,-4255,22
-242,211,-569,3088,-546,-443,2803,60,-15,-154,-2711,-154,-1127,252,-3780,-24
-249,97,-543,3069,-471,-184,2801,5,-49,-810,-2404,-128,-1054,331,-2973,45
-388,150,-595,2937,-622,-505,2792,-54,-109,-473,-2309,-98,-980,260,-3135,67
-484,145,-599,2918,-718,-650,2735,-79,-109,552,-2822,-113,-1014,171,-3250,28
-494,-41,-518,2828,-714,-567,2645,-103,-176,-484,-2918,-81,-995,-28,-2883,71
-657,-288,-980,2441,-1084,-1272,2115,-543,-440,-1391,-3052,-499,-1455,-1284,-3003,-365
-505,52,-690,2620,-884,-1910,2624,-135,-144,-1280,-2353,-60,-997,-1900,-1778,11
-407,50,-767,2760,-737,-2517,2696,-120,-195,-1866,-2106,-181,-1014,-1578,-646,154
-461,60,-603,2884,-648,-2183,2635,-56,-265,-2034,-2157,-194,-982,-856,171,173
-416,84,-686,2856,-697,-1923,2601,-49,-327,-1983,-2351,-181,-976,-492,-177,148
-139,-30,-499,2916,-652,-1685,2620,-101,-255,-1991,-2421,-130,-1050,-494,-901,105
-164,18,-499,2997,-771,-1304,2733,88,-360,-1896,-2306,-198,-991,-731,-1589,171
-545,-107,-671,2803,-935,-976,2792,16,-249,-1755,-2334,-128,-967,-750,-2711,258
-1024,-194,-507,2733,-942,-1150,2758,-13,-125,-1542,-2362,-94,-980,-863,-3484,75
-918,-45,-409,2869,-780,-1355,2652,-88,-156,-1265,-2177,-250,-1010,-746,-4376,114
